key	frequency
0	0.130650
1	0.203903
2	0.260081
3	0.299386
4	0.328307
5	0.350667
6	0.370699
7	0.388144
8	0.402631
9	0.414920
10	0.425509
11	0.435211
12	0.444192
13	0.452471
14	0.460435
15	0.468104
16	0.474757
17	0.480966
18	0.486307
19	0.491740
20	0.496895
21	0.501423
22	0.506080
23	0.510201
24	0.514636
25	0.517925
26	0.521621
27	0.525169
28	0.528551
29	0.532062
30	0.535333
31	0.538604
32	0.541727
33	0.544591
34	0.547141
35	0.550043
36	0.552981
37	0.555679
38	0.558118
39	0.560391
40	0.562572
41	0.564641
42	0.567099
43	0.569150
44	0.571349
45	0.573308
46	0.574971
47	0.577041
48	0.579314
49	0.581162
50	0.582844
51	0.584599
52	0.586373
53	0.588036
54	0.589552
55	0.591233
56	0.592933
57	0.594282
58	0.595521
59	0.597054
60	0.598773
61	0.600288
62	0.601822
63	0.603319
64	0.604908
65	0.606276
66	0.607606
67	0.608844
68	0.610101
69	0.611043
70	0.612152
71	0.613224
72	0.614444
73	0.615830
74	0.616717
75	0.617788
76	0.618842
77	0.620080
78	0.621484
79	0.622353
80	0.623147
81	0.624127
82	0.625069
83	0.626030
84	0.626917
85	0.627527
86	0.628248
87	0.629246
88	0.630040
89	0.631075
90	0.631870
91	0.632775
92	0.633441
93	0.634106
94	0.634845
95	0.635769
96	0.636564
97	0.637377
98	0.638097
99	0.638855
100	0.639594
101	0.640463
102	0.641442
103	0.642070
104	0.642810
105	0.643512
106	0.644417
107	0.645064
108	0.645674
109	0.646228
110	0.646727
111	0.647134
112	0.647744
113	0.648409
114	0.648871
115	0.649333
116	0.649869
117	0.650460
118	0.651181
119	0.651828
120	0.652530
121	0.653251
122	0.653768
123	0.654396
124	0.654914
125	0.655450
126	0.656004
127	0.656558
128	0.657076
129	0.657519
130	0.658148
131	0.658536
132	0.659072
133	0.659571
134	0.660143
135	0.660605
136	0.661178
137	0.661677
138	0.662195
139	0.662712
140	0.663266
141	0.663802
142	0.664135
143	0.664486
144	0.665096
145	0.665576
146	0.666075
147	0.666519
148	0.667036
149	0.667480
150	0.667997
151	0.668404
152	0.668829
153	0.669272
154	0.669790
155	0.670381
156	0.670806
157	0.671213
158	0.671508
159	0.671933
160	0.672395
161	0.672894
162	0.673264
163	0.673744
164	0.674058
165	0.674483
166	0.674872
167	0.675260
168	0.675537
169	0.675943
170	0.676405
171	0.676849
172	0.677182
173	0.677514
174	0.677921
175	0.678457
176	0.678752
177	0.679177
178	0.679602
179	0.679972
180	0.680378
181	0.680656
182	0.681062
183	0.681598
184	0.681931
185	0.682226
186	0.682596
187	0.683021
188	0.683409
189	0.683686
190	0.683945
191	0.684241
192	0.684536
193	0.684758
194	0.685128
195	0.685738
196	0.686200
197	0.686551
198	0.686809
199	0.687160
200	0.687456
201	0.687863
202	0.688121
203	0.688528
204	0.688861
205	0.689175
206	0.689415
207	0.689803
208	0.690025
209	0.690357
210	0.690542
211	0.690819
212	0.691041
213	0.691263
214	0.691669
215	0.691965
216	0.692242
217	0.692593
218	0.692852
219	0.693296
220	0.693776
221	0.694183
222	0.694330
223	0.694589
224	0.694866
225	0.695014
226	0.695439
227	0.695698
228	0.695883
229	0.696105
230	0.696289
231	0.696474
232	0.696770
233	0.697065
234	0.697306
235	0.697527
236	0.697805
237	0.697989
238	0.698211
239	0.698451
240	0.698618
241	0.698895
242	0.699191
243	0.699412
244	0.699745
245	0.699985
246	0.700262
247	0.700503
248	0.700724
249	0.700946
250	0.701186
251	0.701519
252	0.701796
253	0.701981
254	0.702314
255	0.702665
256	0.702979
257	0.703238
258	0.703533
259	0.703774
260	0.704088
261	0.704328
262	0.704568
263	0.704790
264	0.705123
265	0.705233
266	0.705474
267	0.705677
268	0.706028
269	0.706250
270	0.706361
271	0.706545
272	0.706730
273	0.706989
274	0.707155
275	0.707414
276	0.707691
277	0.707913
278	0.708042
279	0.708449
280	0.708708
281	0.708948
282	0.709096
283	0.709280
284	0.709428
285	0.709632
286	0.709890
287	0.710094
288	0.710334
289	0.710482
290	0.710777
291	0.710999
292	0.711239
293	0.711498
294	0.711646
295	0.711941
296	0.712126
297	0.712293
298	0.712459
299	0.712792
300	0.712958
301	0.713143
302	0.713346
303	0.713475
304	0.713734
305	0.713919
306	0.714104
307	0.714344
308	0.714510
309	0.714676
310	0.714861
311	0.715064
312	0.715286
313	0.715490
314	0.715545
315	0.715748
316	0.715896
317	0.716099
318	0.716321
319	0.716469
320	0.716691
321	0.716968
322	0.717153
323	0.717356
324	0.717559
325	0.717707
326	0.717818
327	0.718021
328	0.718114
329	0.718261
330	0.718502
331	0.718723
332	0.718890
333	0.719130
334	0.719315
335	0.719518
336	0.719703
337	0.719925
338	0.720165
339	0.720239
340	0.720497
341	0.720701
342	0.720867
343	0.721015
344	0.721237
345	0.721421
346	0.721588
347	0.721773
348	0.721902
349	0.722087
350	0.722161
351	0.722290
352	0.722512
353	0.722660
354	0.722900
355	0.723048
356	0.723232
357	0.723436
358	0.723713
359	0.723824
360	0.724064
361	0.724323
362	0.724637
363	0.724822
364	0.725006
365	0.725191
366	0.725321
367	0.725505
368	0.725690
369	0.725857
370	0.726078
371	0.726245
372	0.726374
373	0.726614
374	0.726744
375	0.726947
376	0.727187
377	0.727372
378	0.727557
379	0.727778
380	0.727926
381	0.728074
382	0.728130
383	0.728259
384	0.728388
385	0.728573
386	0.728739
387	0.729053
388	0.729146
389	0.729349
390	0.729460
391	0.729645
392	0.729737
393	0.729977
394	0.730125
395	0.730292
396	0.730439
397	0.730532
398	0.730680
399	0.730791
400	0.730920
401	0.731086
402	0.731234
403	0.731345
404	0.731474
405	0.731622
406	0.731788
407	0.731992
408	0.732250
409	0.732398
410	0.732528
411	0.732639
412	0.732749
413	0.732897
414	0.733064
415	0.733193
416	0.733322
417	0.733359
418	0.733562
419	0.733766
420	0.733914
421	0.733988
422	0.734154
423	0.734228
424	0.734394
425	0.734560
426	0.734690
427	0.734875
428	0.735004
429	0.735115
430	0.735207
431	0.735392
432	0.735466
433	0.735614
434	0.735688
435	0.735762
436	0.735798
437	0.735928
438	0.736057
439	0.736279
440	0.736408
441	0.736575
442	0.736741
443	0.736907
444	0.737074
445	0.737184
446	0.737277
447	0.737351
448	0.737480
449	0.737499
450	0.737665
451	0.737794
452	0.737979
453	0.738145
454	0.738238
455	0.738312
456	0.738460
457	0.738515
458	0.738626
459	0.738718
460	0.738829
461	0.739032
462	0.739143
463	0.739291
464	0.739402
465	0.739494
466	0.739587
467	0.739679
468	0.739753
469	0.739882
470	0.740012
471	0.740141
472	0.740252
473	0.740326
474	0.740400
475	0.740455
476	0.740603
477	0.740696
478	0.740788
479	0.740954
480	0.741139
481	0.741287
482	0.741398
483	0.741601
484	0.741749
485	0.741897
486	0.742008
487	0.742118
488	0.742229
489	0.742340
490	0.742377
491	0.742544
492	0.742691
493	0.742839
494	0.743024
495	0.743135
496	0.743246
497	0.743338
498	0.743467
499	0.743634
500	0.743708
501	0.743819
502	0.744022
504	0.744188
505	0.744410
506	0.744502
507	0.744558
508	0.744687
509	0.744761
510	0.744835
511	0.744927
512	0.745020
513	0.745075
514	0.745149
515	0.745297
516	0.745445
517	0.745574
518	0.745667
519	0.745722
520	0.745851
521	0.745962
522	0.746092
523	0.746221
524	0.746332
525	0.746443
526	0.746627
527	0.746831
528	0.746923
529	0.746979
530	0.747089
531	0.747126
532	0.747219
533	0.747330
534	0.747367
535	0.747496
536	0.747551
537	0.747736
538	0.747773
539	0.747884
540	0.747940
541	0.748124
542	0.748161
543	0.748272
544	0.748420
545	0.748549
546	0.748568
547	0.748605
548	0.748642
549	0.748753
550	0.748845
551	0.748974
552	0.749141
553	0.749270
554	0.749455
555	0.749584
556	0.749677
557	0.749751
558	0.749917
559	0.750065
560	0.750120
561	0.750194
562	0.750379
563	0.750397
564	0.750471
565	0.750564
566	0.750619
567	0.750748
568	0.750822
569	0.750933
570	0.751081
571	0.751118
572	0.751173
573	0.751303
574	0.751377
575	0.751469
576	0.751525
577	0.751672
578	0.751746
579	0.751876
580	0.752005
581	0.752116
582	0.752190
583	0.752227
584	0.752356
585	0.752504
586	0.752652
587	0.752726
588	0.752763
589	0.752929
590	0.753058
591	0.753151
592	0.753188
593	0.753317
594	0.753446
595	0.753539
596	0.753613
597	0.753724
598	0.753816
599	0.753890
600	0.754001
601	0.754112
602	0.754260
603	0.754296
604	0.754370
605	0.754407
606	0.754426
607	0.754555
608	0.754740
609	0.754851
610	0.754980
611	0.755073
612	0.755147
613	0.755220
614	0.755387
615	0.755442
616	0.755498
617	0.755627
618	0.755701
619	0.755830
620	0.755867
621	0.755960
622	0.756034
623	0.756163
624	0.756218
625	0.756329
626	0.756403
627	0.756477
628	0.756533
629	0.756606
630	0.756625
631	0.756662
632	0.756717
633	0.756791
634	0.756939
635	0.757087
636	0.757235
637	0.757309
638	0.757401
639	0.757456
640	0.757530
641	0.757623
642	0.757641
643	0.757734
644	0.757808
646	0.757955
647	0.758048
648	0.758159
649	0.758196
650	0.758288
651	0.758399
652	0.758491
653	0.758528
654	0.758565
655	0.758676
656	0.758787
657	0.758842
658	0.758935
659	0.759009
660	0.759101
661	0.759194
662	0.759304
663	0.759378
664	0.759471
665	0.759545
666	0.759656
667	0.759729
668	0.759822
669	0.759877
670	0.759933
671	0.759988
672	0.760062
673	0.760154
674	0.760191
675	0.760284
676	0.760358
677	0.760450
678	0.760561
679	0.760635
680	0.760709
681	0.760820
682	0.760857
683	0.760931
684	0.760986
685	0.761060
686	0.761134
687	0.761189
688	0.761319
689	0.761411
690	0.761503
691	0.761596
692	0.761707
693	0.761799
694	0.761855
695	0.761984
696	0.762113
697	0.762187
698	0.762298
699	0.762354
700	0.762464
701	0.762612
702	0.762631
703	0.762686
704	0.762816
705	0.762926
706	0.762945
707	0.762982
708	0.763111
709	0.763130
710	0.763222
711	0.763314
712	0.763407
713	0.763481
714	0.763518
715	0.763536
716	0.763573
717	0.763610
718	0.763684
719	0.763776
720	0.763887
721	0.763961
722	0.764017
723	0.764165
724	0.764183
725	0.764294
726	0.764349
727	0.764442
728	0.764479
729	0.764571
730	0.764663
731	0.764737
732	0.764774
733	0.764793
734	0.764830
735	0.764848
736	0.764922
737	0.764959
738	0.764978
739	0.765107
740	0.765218
741	0.765273
742	0.765347
743	0.765384
744	0.765477
745	0.765532
746	0.765624
747	0.765661
748	0.765772
749	0.765883
750	0.765994
751	0.766031
752	0.766086
753	0.766123
754	0.766160
755	0.766253
756	0.766271
757	0.766308
758	0.766364
759	0.766438
760	0.766548
761	0.766604
762	0.766696
763	0.766733
764	0.766844
766	0.766955
767	0.766992
768	0.767047
769	0.767066
770	0.767140
771	0.767195
772	0.767269
773	0.767361
774	0.767417
775	0.767454
776	0.767546
777	0.767620
778	0.767639
779	0.767713
780	0.767787
781	0.767823
782	0.767953
783	0.768008
784	0.768119
785	0.768193
786	0.768285
787	0.768341
788	0.768359
789	0.768470
790	0.768544
791	0.768563
792	0.768600
793	0.768692
794	0.768766
795	0.768840
796	0.768877
797	0.768951
798	0.769006
799	0.769080
800	0.769228
801	0.769246
802	0.769320
803	0.769339
804	0.769376
805	0.769487
806	0.769598
807	0.769671
808	0.769745
809	0.769801
810	0.769819
811	0.769856
812	0.769912
813	0.770004
814	0.770152
815	0.770244
816	0.770263
817	0.770300
818	0.770392
819	0.770448
820	0.770540
821	0.770651
822	0.770725
823	0.770762
825	0.770836
826	0.770873
827	0.770947
829	0.770983
830	0.771020
831	0.771057
832	0.771094
833	0.771113
834	0.771187
835	0.771242
836	0.771316
837	0.771353
838	0.771372
839	0.771427
840	0.771464
841	0.771501
842	0.771575
843	0.771649
844	0.771686
845	0.771704
846	0.771778
847	0.771815
848	0.771889
849	0.771963
850	0.772092
851	0.772166
852	0.772240
853	0.772314
854	0.772406
855	0.772499
856	0.772573
857	0.772665
858	0.772739
859	0.772813
860	0.772868
861	0.772887
862	0.772979
863	0.772998
864	0.773053
865	0.773146
866	0.773183
867	0.773238
868	0.773275
869	0.773386
870	0.773441
871	0.773478
872	0.773497
873	0.773534
874	0.773571
875	0.773589
876	0.773608
877	0.773663
878	0.773681
879	0.773792
880	0.773885
881	0.774033
882	0.774088
883	0.774125
884	0.774180
885	0.774254
886	0.774347
887	0.774439
889	0.774513
890	0.774550
891	0.774661
893	0.774698
895	0.774735
896	0.774790
897	0.774846
898	0.774883
900	0.774975
901	0.775012
902	0.775030
903	0.775049
904	0.775141
905	0.775197
906	0.775215
907	0.775234
908	0.775289
909	0.775308
910	0.775345
911	0.775382
912	0.775437
913	0.775492
914	0.775603
916	0.775659
917	0.775714
918	0.775825
919	0.775899
920	0.776047
921	0.776102
922	0.776158
923	0.776176
924	0.776232
925	0.776324
926	0.776398
927	0.776472
928	0.776490
929	0.776527
930	0.776583
932	0.776638
933	0.776694
934	0.776731
935	0.776786
936	0.776823
937	0.776897
938	0.776971
939	0.777026
940	0.777137
941	0.777230
942	0.777285
943	0.777377
944	0.777414
945	0.777488
946	0.777544
947	0.777618
948	0.777692
949	0.777747
950	0.777784
951	0.777802
952	0.777839
953	0.777895
955	0.777969
956	0.778006
957	0.778061
958	0.778172
959	0.778283
960	0.778338
961	0.778412
962	0.778486
964	0.778579
965	0.778616
966	0.778634
967	0.778671
968	0.778745
969	0.778782
970	0.778800
971	0.778856
972	0.778911
973	0.778948
974	0.778967
975	0.778985
976	0.779041
977	0.779078
978	0.779133
979	0.779188
980	0.779262
981	0.779318
982	0.779355
983	0.779429
984	0.779447
985	0.779521
986	0.779595
987	0.779650
988	0.779761
989	0.779835
990	0.779854
991	0.779909
992	0.779928
993	0.779965
994	0.780020
995	0.780075
996	0.780094
997	0.780131
998	0.780149
999	0.780205
1000	0.780260
1001	0.780353
1002	0.780371
1003	0.780390
1004	0.780408
1005	0.780463
1006	0.780519
1007	0.780556
1008	0.780574
1009	0.780611
1010	0.780648
1011	0.780667
1012	0.780741
1013	0.780796
1014	0.780870
1015	0.780944
1016	0.781018
1017	0.781129
1018	0.781147
1019	0.781184
1020	0.781258
1021	0.781332
1022	0.781424
1023	0.781480
1024	0.781535
1025	0.781572
1026	0.781609
1027	0.781665
1028	0.781702
1029	0.781776
1030	0.781868
1031	0.781923
1032	0.781997
1033	0.782053
1034	0.782145
1035	0.782237
1036	0.782348
1037	0.782367
1038	0.782404
1039	0.782441
1040	0.782459
1041	0.782552
1042	0.782589
1043	0.782663
1044	0.782718
1045	0.782810
1046	0.782847
1047	0.782866
1048	0.782921
1049	0.782958
1050	0.783032
1051	0.783106
1052	0.783161
1053	0.783180
1054	0.783198
1055	0.783235
1056	0.783254
1057	0.783291
1060	0.783365
1061	0.783420
1062	0.783457
1063	0.783476
1064	0.783513
1065	0.783605
1066	0.783642
1067	0.783697
1068	0.783734
1070	0.783771
1071	0.783845
1072	0.783919
1073	0.783993
1074	0.784048
1075	0.784122
1076	0.784196
1077	0.784215
1078	0.784381
1079	0.784418
1080	0.784510
1081	0.784529
1082	0.784547
1083	0.784584
1084	0.784603
1086	0.784640
1087	0.784677
1088	0.784714
1089	0.784732
1090	0.784751
1091	0.784825
1092	0.784880
1093	0.784972
1094	0.785009
1095	0.785065
1096	0.785083
1097	0.785120
1098	0.785176
1099	0.785213
1100	0.785268
1101	0.785305
1102	0.785342
1103	0.785361
1104	0.785397
1105	0.785416
1106	0.785453
1107	0.785490
1109	0.785508
1110	0.785527
1111	0.785545
1112	0.785582
1113	0.785656
1114	0.785749
1115	0.785804
1116	0.785823
1117	0.785878
1118	0.785970
1119	0.785989
1121	0.786026
1122	0.786063
1123	0.786137
1124	0.786192
1125	0.786229
1126	0.786266
1127	0.786303
1128	0.786395
1129	0.786488
1130	0.786562
1131	0.786599
1132	0.786636
1133	0.786673
1134	0.786710
1135	0.786746
1137	0.786857
1138	0.786913
1139	0.786950
1140	0.786968
1141	0.787024
1142	0.787079
1143	0.787116
1144	0.787135
1145	0.787172
1146	0.787208
1148	0.787264
1149	0.787356
1150	0.787412
1151	0.787449
1152	0.787486
1153	0.787523
1154	0.787597
1156	0.787634
1157	0.787689
1158	0.787707
1159	0.787781
1161	0.787818
1162	0.787892
1163	0.787929
1164	0.787985
1165	0.788040
1166	0.788114
1167	0.788151
1168	0.788169
1169	0.788206
1170	0.788243
1171	0.788280
1172	0.788317
1173	0.788336
1174	0.788354
1175	0.788373
1176	0.788391
1177	0.788428
1178	0.788502
1179	0.788521
1180	0.788539
1181	0.788576
1182	0.788594
1184	0.788705
1185	0.788742
1186	0.788835
1187	0.788909
1188	0.788964
1189	0.789056
1190	0.789093
1192	0.789130
1193	0.789186
1194	0.789297
1195	0.789334
1196	0.789371
1198	0.789389
1199	0.789445
1200	0.789481
1203	0.789518
1204	0.789555
1205	0.789592
1206	0.789685
1207	0.789722
1208	0.789796
1210	0.789870
1211	0.789888
1213	0.789962
1214	0.789980
1215	0.790017
1216	0.790054
1217	0.790091
1218	0.790110
1219	0.790128
1220	0.790147
1222	0.790202
1224	0.790276
1225	0.790313
1226	0.790332
1227	0.790405
1228	0.790479
1229	0.790516
1230	0.790553
1231	0.790609
1232	0.790627
1233	0.790683
1234	0.790701
1235	0.790757
1237	0.790775
1238	0.790794
1239	0.790812
1240	0.790904
1241	0.790941
1242	0.790997
1243	0.791071
1244	0.791089
1245	0.791163
1246	0.791182
1248	0.791200
1249	0.791237
1250	0.791255
1251	0.791292
1252	0.791329
1253	0.791348
1254	0.791366
1255	0.791533
1256	0.791607
1257	0.791644
1258	0.791699
1259	0.791773
1260	0.791791
1261	0.791865
1262	0.791921
1263	0.791958
1264	0.792032
1265	0.792069
1267	0.792161
1268	0.792179
1269	0.792216
1270	0.792253
1271	0.792290
1274	0.792309
1277	0.792364
1278	0.792457
1279	0.792494
1280	0.792549
1281	0.792605
1282	0.792678
1283	0.792697
1284	0.792715
1285	0.792771
1286	0.792826
1287	0.792845
1288	0.792882
1290	0.792900
1291	0.792919
1292	0.792937
1293	0.793011
1294	0.793048
1295	0.793066
1296	0.793085
1297	0.793103
1298	0.793159
1299	0.793177
1300	0.793196
1301	0.793251
1302	0.793270
1304	0.793344
1306	0.793362
1307	0.793418
1308	0.793436
1309	0.793473
1310	0.793510
1312	0.793547
1313	0.793565
1315	0.793658
1316	0.793695
1317	0.793732
1318	0.793769
1319	0.793787
1321	0.793824
1324	0.793843
1325	0.793880
1326	0.793917
1327	0.793972
1328	0.794027
1329	0.794101
1330	0.794120
1331	0.794231
1332	0.794268
1334	0.794286
1335	0.794342
1336	0.794360
1337	0.794397
1338	0.794489
1339	0.794526
1340	0.794545
1341	0.794582
1342	0.794600
1343	0.794656
1344	0.794711
1346	0.794785
1347	0.794804
1349	0.794896
1350	0.794914
1351	0.794951
1352	0.795007
1353	0.795044
1355	0.795081
1357	0.795118
1358	0.795155
1359	0.795192
1360	0.795266
1361	0.795284
1362	0.795321
1363	0.795413
1366	0.795432
1367	0.795450
1368	0.795506
1369	0.795543
1370	0.795598
1371	0.795617
1372	0.795654
1373	0.795672
1375	0.795709
1376	0.795728
1378	0.795801
1379	0.795838
1380	0.795857
1381	0.795894
1382	0.795968
1383	0.796060
1384	0.796097
1385	0.796153
1386	0.796171
1387	0.796190
1388	0.796226
1389	0.796263
1390	0.796300
1392	0.796356
1393	0.796411
1396	0.796467
1397	0.796485
1398	0.796578
1399	0.796633
1400	0.796670
1401	0.796707
1402	0.796725
1405	0.796781
1406	0.796818
1407	0.796873
1408	0.796947
1409	0.797003
1410	0.797021
1411	0.797040
1412	0.797077
1413	0.797132
1414	0.797150
1416	0.797187
1417	0.797224
1419	0.797261
1420	0.797280
1421	0.797317
1422	0.797335
1423	0.797354
1424	0.797391
1425	0.797520
1426	0.797575
1427	0.797594
1428	0.797668
1429	0.797686
1430	0.797742
1432	0.797760
1433	0.797797
1434	0.797816
1436	0.797853
1437	0.797871
1438	0.797890
1439	0.797945
1440	0.797982
1441	0.798019
1442	0.798037
1443	0.798130
1444	0.798167
1445	0.798185
1447	0.798241
1448	0.798259
1450	0.798352
1451	0.798370
1452	0.798389
1453	0.798499
1454	0.798518
1455	0.798555
1456	0.798629
1459	0.798666
1460	0.798684
1461	0.798703
1462	0.798721
1463	0.798758
1464	0.798832
1465	0.798869
1467	0.798924
1468	0.798980
1469	0.799017
1470	0.799054
1471	0.799128
1473	0.799202
1474	0.799239
1475	0.799331
1477	0.799368
1478	0.799386
1479	0.799405
1480	0.799423
1481	0.799460
1482	0.799479
1483	0.799534
1484	0.799571
1485	0.799608
1486	0.799664
1487	0.799701
1490	0.799719
1491	0.799775
1493	0.799812
1494	0.799830
1495	0.799848
1496	0.799867
1497	0.799885
1498	0.799922
1499	0.799959
1501	0.799996
1502	0.800070
1503	0.800107
1504	0.800126
1505	0.800144
1506	0.800163
1507	0.800200
1508	0.800218
1509	0.800273
1510	0.800310
1511	0.800329
1513	0.800403
1515	0.800421
1516	0.800458
1517	0.800495
1518	0.800532
1521	0.800588
1522	0.800606
1526	0.800625
1527	0.800662
1529	0.800699
1530	0.800735
1531	0.800754
1532	0.800772
1533	0.800791
1536	0.800828
1537	0.800846
1538	0.800902
1539	0.800920
1541	0.800939
1542	0.800957
1545	0.800976
1546	0.800994
1547	0.801013
1548	0.801050
1549	0.801068
1550	0.801105
1551	0.801142
1552	0.801161
1553	0.801197
1555	0.801234
1556	0.801253
1558	0.801271
1560	0.801290
1561	0.801327
1562	0.801364
1563	0.801382
1564	0.801438
1565	0.801475
1566	0.801512
1567	0.801549
1568	0.801586
1570	0.801659
1571	0.801696
1572	0.801733
1574	0.801789
1576	0.801826
1577	0.801863
1580	0.801881
1581	0.801918
1582	0.801937
1583	0.801955
1584	0.801992
1585	0.802066
1586	0.802121
1587	0.802158
1588	0.802177
1589	0.802214
1590	0.802251
1591	0.802288
1594	0.802306
1596	0.802325
1597	0.802362
1599	0.802380
1600	0.802417
1601	0.802436
1602	0.802473
1604	0.802510
1605	0.802528
1606	0.802583
