key	frequency
0	0.030733
1	0.047500
2	0.061933
3	0.071867
4	0.080017
5	0.087917
6	0.093667
7	0.098850
8	0.103267
9	0.107083
10	0.110567
11	0.114200
12	0.117483
13	0.120367
14	0.123483
15	0.126133
16	0.128633
17	0.130933
18	0.133167
19	0.135383
20	0.137167
21	0.139017
22	0.140917
23	0.142767
24	0.144983
25	0.146750
26	0.148317
27	0.150150
28	0.152000
29	0.153400
30	0.154917
31	0.156167
32	0.157550
33	0.158683
34	0.159917
35	0.161317
36	0.162450
37	0.163700
38	0.164733
39	0.165883
40	0.166800
41	0.168000
42	0.169200
43	0.170150
44	0.171650
45	0.172850
46	0.174000
47	0.174950
48	0.175933
49	0.176867
50	0.177917
51	0.178900
52	0.180067
53	0.181100
54	0.182233
55	0.183067
56	0.184050
57	0.184867
58	0.185867
59	0.186833
60	0.187717
61	0.188367
62	0.189133
63	0.189817
64	0.190583
65	0.191483
66	0.192250
67	0.193017
68	0.193750
69	0.194433
70	0.195083
71	0.195883
72	0.196667
73	0.197183
74	0.197733
75	0.198517
76	0.199167
77	0.199800
78	0.200567
79	0.201367
80	0.202017
81	0.202650
82	0.203283
83	0.203883
84	0.204350
85	0.204867
86	0.205333
87	0.205783
88	0.206233
89	0.206783
90	0.207217
91	0.207783
92	0.208417
93	0.208883
94	0.209400
95	0.209800
96	0.210400
97	0.211000
98	0.211300
99	0.211783
100	0.212250
101	0.212983
102	0.213383
103	0.213750
104	0.214367
105	0.214933
106	0.215700
107	0.216183
108	0.216600
109	0.217067
110	0.217633
111	0.217967
112	0.218533
113	0.219017
114	0.219417
115	0.219767
116	0.220267
117	0.220733
118	0.221250
119	0.221633
120	0.222117
121	0.222517
122	0.222900
123	0.223217
124	0.223617
125	0.224017
126	0.224450
127	0.224867
128	0.225383
129	0.225767
130	0.225983
131	0.226450
132	0.226733
133	0.227117
134	0.227483
135	0.227950
136	0.228417
137	0.228667
138	0.229017
139	0.229417
140	0.229717
141	0.230100
142	0.230467
143	0.230783
144	0.231150
145	0.231583
146	0.231833
147	0.232050
148	0.232367
149	0.232667
150	0.233050
151	0.233400
152	0.233867
153	0.234133
154	0.234500
155	0.234883
156	0.235100
157	0.235483
158	0.235683
159	0.236100
160	0.236383
161	0.236733
162	0.237083
163	0.237400
164	0.237683
165	0.238083
166	0.238400
167	0.238750
168	0.239017
169	0.239300
170	0.239683
171	0.239900
172	0.240167
173	0.240433
174	0.240733
175	0.240983
176	0.241267
177	0.241683
178	0.242217
179	0.242483
180	0.242767
181	0.243117
182	0.243483
183	0.243867
184	0.244200
185	0.244500
186	0.244800
187	0.245050
188	0.245300
189	0.245600
190	0.245867
191	0.246167
192	0.246600
193	0.246767
194	0.246950
195	0.247167
196	0.247550
197	0.247783
198	0.248100
199	0.248333
200	0.248733
201	0.249067
202	0.249250
203	0.249517
204	0.249733
205	0.250167
206	0.250517
207	0.250867
208	0.251200
209	0.251433
210	0.251633
211	0.251883
212	0.252167
213	0.252450
214	0.252683
215	0.253033
216	0.253250
217	0.253467
218	0.253750
219	0.254117
220	0.254333
221	0.254683
222	0.254900
223	0.255067
224	0.255350
225	0.255650
226	0.256000
227	0.256217
228	0.256467
229	0.256750
230	0.256917
231	0.257100
232	0.257467
233	0.257667
234	0.257900
235	0.258300
236	0.258667
237	0.258917
238	0.259217
239	0.259383
240	0.259650
241	0.259800
242	0.259933
243	0.260083
244	0.260400
245	0.260633
246	0.260950
247	0.261300
248	0.261517
249	0.261700
250	0.261883
251	0.262083
252	0.262283
253	0.262450
254	0.262717
255	0.263000
256	0.263217
257	0.263367
258	0.263517
259	0.263633
260	0.263883
261	0.264017
262	0.264167
263	0.264400
264	0.264650
265	0.264900
266	0.265100
267	0.265233
268	0.265433
269	0.265467
270	0.265650
271	0.265850
272	0.265983
273	0.266250
274	0.266467
275	0.266683
276	0.266883
277	0.267067
278	0.267250
279	0.267417
280	0.267650
281	0.267917
282	0.268167
283	0.268467
284	0.268683
285	0.268950
286	0.269167
287	0.269350
288	0.269567
289	0.269700
290	0.269933
291	0.270067
292	0.270250
293	0.270433
294	0.270667
295	0.270933
296	0.271167
297	0.271383
298	0.271700
299	0.271867
300	0.271983
301	0.272250
302	0.272517
303	0.272767
304	0.272900
305	0.272983
306	0.273167
307	0.273333
308	0.273550
309	0.273700
310	0.273900
311	0.274067
312	0.274350
313	0.274550
314	0.274667
315	0.274900
316	0.275050
317	0.275233
318	0.275400
319	0.275567
320	0.275900
321	0.276150
322	0.276283
323	0.276433
324	0.276683
325	0.276900
326	0.277167
327	0.277333
328	0.277550
329	0.277667
330	0.277950
331	0.278183
332	0.278367
333	0.278550
334	0.278667
335	0.278850
336	0.279000
337	0.279183
338	0.279333
339	0.279467
340	0.279683
341	0.279950
342	0.280133
343	0.280267
344	0.280467
345	0.280650
346	0.280800
347	0.281000
348	0.281150
349	0.281250
350	0.281450
351	0.281617
352	0.281867
353	0.282050
354	0.282150
355	0.282350
356	0.282483
357	0.282683
358	0.282783
359	0.282967
360	0.283117
361	0.283367
362	0.283533
363	0.283700
364	0.283833
365	0.284033
366	0.284167
367	0.284317
368	0.284483
369	0.284683
370	0.284833
371	0.285033
372	0.285183
373	0.285300
374	0.285450
375	0.285617
376	0.285750
377	0.285850
378	0.286050
379	0.286250
380	0.286383
381	0.286500
382	0.286683
383	0.286833
384	0.287017
385	0.287133
386	0.287283
387	0.287367
388	0.287483
389	0.287667
390	0.287850
391	0.287933
392	0.288000
393	0.288100
394	0.288183
395	0.288400
396	0.288533
397	0.288650
398	0.288817
399	0.289017
400	0.289117
401	0.289317
402	0.289500
403	0.289617
404	0.289783
405	0.289983
406	0.290200
407	0.290350
408	0.290550
409	0.290600
410	0.290717
411	0.290900
412	0.291083
413	0.291217
414	0.291383
415	0.291467
416	0.291683
417	0.291800
418	0.291950
419	0.292067
420	0.292183
421	0.292317
422	0.292533
423	0.292667
424	0.292867
425	0.292967
426	0.293133
427	0.293233
428	0.293333
429	0.293500
430	0.293583
431	0.293683
432	0.293767
433	0.293933
434	0.294067
435	0.294167
436	0.294300
437	0.294500
438	0.294617
439	0.294750
440	0.294917
441	0.295017
442	0.295133
443	0.295267
444	0.295350
445	0.295483
446	0.295700
447	0.295900
448	0.295933
449	0.295983
450	0.296167
451	0.296283
452	0.296450
453	0.296633
454	0.296750
455	0.296867
456	0.297067
457	0.297200
458	0.297283
459	0.297383
460	0.297550
461	0.297683
462	0.297867
463	0.297933
464	0.298017
465	0.298117
466	0.298283
467	0.298483
468	0.298633
469	0.298783
470	0.298883
471	0.299017
472	0.299150
473	0.299300
474	0.299367
475	0.299500
476	0.299550
477	0.299683
478	0.299800
479	0.299950
480	0.300100
481	0.300250
482	0.300433
483	0.300567
484	0.300683
485	0.300867
486	0.301017
487	0.301150
488	0.301200
489	0.301250
490	0.301350
491	0.301450
492	0.301517
493	0.301583
494	0.301700
495	0.301833
496	0.301983
497	0.302167
498	0.302300
499	0.302367
500	0.302483
501	0.302567
502	0.302733
503	0.302883
504	0.303017
505	0.303100
506	0.303200
507	0.303317
508	0.303450
509	0.303550
510	0.303667
511	0.303817
512	0.303967
513	0.304050
514	0.304200
515	0.304350
516	0.304533
517	0.304700
518	0.304867
519	0.304933
520	0.305083
521	0.305217
522	0.305350
523	0.305400
524	0.305467
525	0.305600
526	0.305767
527	0.305950
528	0.306067
529	0.306300
530	0.306417
531	0.306583
532	0.306733
533	0.306833
534	0.306917
535	0.307067
536	0.307117
537	0.307233
538	0.307333
539	0.307450
540	0.307550
541	0.307683
542	0.307783
543	0.307867
544	0.308067
545	0.308217
546	0.308350
547	0.308500
548	0.308633
549	0.308767
550	0.308867
551	0.308917
552	0.309033
553	0.309117
554	0.309217
555	0.309283
556	0.309317
557	0.309383
558	0.309533
559	0.309617
560	0.309700
561	0.309833
562	0.309967
563	0.310117
564	0.310183
565	0.310283
566	0.310400
567	0.310567
568	0.310633
569	0.310717
570	0.310783
571	0.310917
572	0.310983
573	0.311117
574	0.311167
575	0.311300
576	0.311400
577	0.311483
578	0.311600
579	0.311767
580	0.311850
581	0.311900
582	0.312033
583	0.312150
584	0.312317
585	0.312433
586	0.312517
587	0.312600
588	0.312717
589	0.312783
590	0.312883
591	0.312967
592	0.313033
593	0.313217
594	0.313317
595	0.313333
596	0.313467
597	0.313600
598	0.313700
599	0.313750
600	0.313867
601	0.313950
602	0.314067
603	0.314267
604	0.314400
605	0.314467
606	0.314550
607	0.314617
608	0.314783
609	0.314833
610	0.314933
611	0.315033
612	0.315100
613	0.315217
614	0.315400
615	0.315550
616	0.315583
617	0.315683
618	0.315817
619	0.315883
620	0.316067
621	0.316233
622	0.316350
623	0.316450
624	0.316533
625	0.316650
626	0.316733
627	0.316767
628	0.316833
629	0.317017
630	0.317100
631	0.317183
632	0.317267
633	0.317300
634	0.317367
635	0.317433
636	0.317517
637	0.317533
638	0.317617
639	0.317667
640	0.317783
641	0.317950
642	0.318017
643	0.318067
644	0.318217
645	0.318283
646	0.318333
647	0.318400
648	0.318433
649	0.318500
650	0.318583
651	0.318700
652	0.318750
653	0.318867
654	0.319050
655	0.319167
656	0.319267
657	0.319383
658	0.319467
659	0.319617
660	0.319733
661	0.319800
662	0.319933
663	0.320017
664	0.320100
665	0.320167
666	0.320283
667	0.320367
668	0.320467
669	0.320517
670	0.320583
671	0.320683
672	0.320800
673	0.320900
674	0.320950
675	0.321033
676	0.321167
677	0.321300
678	0.321433
679	0.321500
680	0.321633
681	0.321683
682	0.321867
683	0.321917
684	0.321967
685	0.322133
686	0.322200
687	0.322283
688	0.322333
689	0.322433
690	0.322533
691	0.322633
692	0.322700
693	0.322833
694	0.322950
695	0.322967
696	0.323050
697	0.323133
698	0.323167
699	0.323233
700	0.323350
701	0.323417
702	0.323517
703	0.323650
704	0.323767
705	0.323850
706	0.324017
707	0.324117
708	0.324183
709	0.324300
710	0.324400
711	0.324483
712	0.324583
713	0.324750
714	0.324850
715	0.324950
716	0.325033
717	0.325183
718	0.325333
719	0.325383
720	0.325450
721	0.325550
722	0.325633
723	0.325667
724	0.325883
725	0.325967
726	0.326050
727	0.326100
728	0.326200
729	0.326267
730	0.326300
731	0.326383
732	0.326467
733	0.326483
734	0.326533
735	0.326633
736	0.326750
737	0.326850
738	0.326967
739	0.326983
740	0.327033
741	0.327100
742	0.327217
743	0.327283
744	0.327383
745	0.327400
746	0.327483
747	0.327500
748	0.327583
750	0.327650
751	0.327667
752	0.327767
753	0.327817
754	0.327933
755	0.328033
756	0.328083
757	0.328200
758	0.328267
759	0.328367
760	0.328450
761	0.328517
762	0.328583
763	0.328617
764	0.328717
765	0.328817
766	0.328883
767	0.328950
768	0.329050
769	0.329200
770	0.329300
771	0.329417
772	0.329450
773	0.329517
774	0.329567
775	0.329700
776	0.329783
777	0.329867
778	0.329967
779	0.330050
780	0.330083
781	0.330150
782	0.330233
783	0.330283
784	0.330317
785	0.330350
786	0.330433
787	0.330500
788	0.330633
789	0.330700
790	0.330817
791	0.330933
792	0.331033
793	0.331133
794	0.331150
795	0.331250
796	0.331300
797	0.331500
798	0.331600
799	0.331633
800	0.331683
801	0.331783
802	0.331883
803	0.331900
804	0.331983
805	0.332083
806	0.332150
807	0.332217
808	0.332250
809	0.332317
810	0.332400
811	0.332483
812	0.332567
813	0.332583
814	0.332733
815	0.332850
816	0.332983
817	0.333033
818	0.333117
819	0.333200
820	0.333233
821	0.333283
822	0.333333
823	0.333417
824	0.333483
825	0.333550
826	0.333633
827	0.333683
828	0.333733
829	0.333817
830	0.333867
831	0.333883
832	0.333967
833	0.333983
834	0.334033
835	0.334133
836	0.334167
837	0.334233
838	0.334333
839	0.334433
840	0.334500
841	0.334567
842	0.334617
843	0.334650
844	0.334783
845	0.334867
846	0.334917
847	0.335000
848	0.335117
849	0.335133
850	0.335233
851	0.335300
852	0.335350
853	0.335417
854	0.335450
855	0.335533
856	0.335650
857	0.335717
858	0.335867
859	0.335983
860	0.336033
861	0.336083
862	0.336167
863	0.336283
864	0.336317
865	0.336333
866	0.336400
867	0.336467
868	0.336533
869	0.336617
870	0.336683
871	0.336733
872	0.336783
873	0.336833
874	0.336850
875	0.336917
876	0.336983
877	0.337017
878	0.337133
879	0.337183
880	0.337233
881	0.337300
882	0.337350
883	0.337383
884	0.337400
885	0.337500
886	0.337533
887	0.337567
888	0.337600
889	0.337717
890	0.337767
891	0.337783
892	0.337900
893	0.338033
894	0.338117
895	0.338167
896	0.338233
898	0.338367
899	0.338450
900	0.338517
901	0.338617
902	0.338650
903	0.338750
904	0.338850
905	0.338967
906	0.339083
907	0.339150
908	0.339167
909	0.339317
910	0.339350
911	0.339433
912	0.339517
913	0.339633
914	0.339667
915	0.339750
916	0.339800
917	0.339867
918	0.340000
919	0.340067
920	0.340100
921	0.340183
922	0.340217
923	0.340317
924	0.340350
925	0.340500
926	0.340683
927	0.340750
928	0.340800
929	0.340867
930	0.340883
931	0.341050
932	0.341167
933	0.341233
934	0.341283
935	0.341350
936	0.341417
937	0.341450
938	0.341550
939	0.341567
940	0.341633
941	0.341733
942	0.341900
943	0.342017
944	0.342067
945	0.342200
946	0.342233
947	0.342350
948	0.342383
949	0.342467
950	0.342583
951	0.342617
952	0.342700
953	0.342850
954	0.342883
955	0.342917
956	0.342983
957	0.343000
958	0.343067
959	0.343183
960	0.343233
961	0.343317
962	0.343383
963	0.343467
964	0.343533
965	0.343567
966	0.343667
967	0.343700
968	0.343767
969	0.343800
970	0.343867
971	0.343917
972	0.343933
973	0.344017
974	0.344083
975	0.344167
976	0.344233
977	0.344317
978	0.344433
979	0.344483
980	0.344550
981	0.344617
982	0.344650
983	0.344783
984	0.344850
985	0.344933
986	0.344983
987	0.345000
988	0.345083
989	0.345150
990	0.345200
991	0.345250
992	0.345267
993	0.345367
994	0.345400
996	0.345450
997	0.345483
998	0.345567
999	0.345650
1000	0.345717
1001	0.345767
1002	0.345817
1003	0.345833
1004	0.345850
1005	0.345883
1006	0.345900
1007	0.345967
1008	0.346017
1009	0.346067
1010	0.346117
1011	0.346183
1012	0.346233
1013	0.346333
1014	0.346433
1015	0.346483
1016	0.346567
1017	0.346617
1018	0.346700
1019	0.346767
1020	0.346817
1021	0.346917
1022	0.347033
1023	0.347050
1024	0.347117
1025	0.347150
1026	0.347217
1027	0.347267
1028	0.347317
1029	0.347417
1030	0.347517
1031	0.347583
1032	0.347617
1033	0.347667
1034	0.347717
1036	0.347783
1037	0.347867
1038	0.347933
1039	0.347967
1040	0.348017
1041	0.348083
1042	0.348217
1043	0.348233
1044	0.348250
1045	0.348350
1046	0.348367
1047	0.348433
1048	0.348500
1049	0.348550
1050	0.348617
1051	0.348700
1052	0.348733
1053	0.348817
1054	0.348917
1055	0.348933
1056	0.348983
1059	0.349083
1060	0.349150
1061	0.349200
1062	0.349300
1063	0.349317
1064	0.349383
1065	0.349467
1066	0.349483
1067	0.349533
1068	0.349550
1069	0.349567
1070	0.349617
1071	0.349683
1072	0.349717
1073	0.349750
1074	0.349800
1075	0.349900
1076	0.349933
1077	0.350000
1078	0.350100
1079	0.350167
1080	0.350300
1081	0.350383
1082	0.350417
1083	0.350500
1084	0.350567
1085	0.350667
1086	0.350767
1087	0.350800
1088	0.350883
1089	0.351017
1090	0.351067
1091	0.351117
1092	0.351167
1093	0.351267
1094	0.351367
1095	0.351400
1096	0.351467
1098	0.351483
1099	0.351533
1100	0.351617
1101	0.351667
1102	0.351767
1103	0.351883
1104	0.351917
1105	0.352000
1106	0.352100
1107	0.352167
1108	0.352183
1109	0.352317
1110	0.352367
1111	0.352400
1112	0.352450
1113	0.352483
1115	0.352567
1116	0.352600
1117	0.352650
1118	0.352667
1119	0.352767
1120	0.352817
1121	0.352850
1122	0.352933
1123	0.353000
1124	0.353117
1125	0.353250
1126	0.353333
1127	0.353400
1129	0.353433
1130	0.353500
1131	0.353567
1132	0.353600
1133	0.353717
1134	0.353767
1135	0.353850
1136	0.353900
1137	0.353950
1138	0.354033
1139	0.354100
1140	0.354133
1141	0.354150
1142	0.354183
1143	0.354250
1144	0.354317
1145	0.354367
1146	0.354417
1147	0.354483
1148	0.354517
1149	0.354533
1150	0.354583
1151	0.354650
1152	0.354733
1153	0.354783
1154	0.354867
1155	0.354883
1156	0.354950
1157	0.355000
1158	0.355033
1159	0.355083
1160	0.355133
1161	0.355217
1162	0.355267
1163	0.355333
1164	0.355400
1165	0.355450
1166	0.355600
1167	0.355667
1168	0.355733
1170	0.355817
1172	0.355850
1173	0.355933
1174	0.355983
1175	0.356033
1176	0.356117
1177	0.356217
1178	0.356283
1179	0.356383
1180	0.356517
1181	0.356583
1182	0.356633
1183	0.356667
1184	0.356783
1185	0.356883
1186	0.356983
1187	0.357067
1188	0.357083
1189	0.357183
1190	0.357217
1191	0.357333
1192	0.357417
1193	0.357467
1194	0.357483
1195	0.357550
1196	0.357667
1198	0.357700
1199	0.357767
1200	0.357883
1202	0.357917
1203	0.357983
1204	0.358033
1205	0.358050
1206	0.358100
1207	0.358117
1208	0.358183
1209	0.358217
1210	0.358267
1211	0.358300
1212	0.358317
1213	0.358400
1214	0.358467
1215	0.358533
1216	0.358583
1217	0.358617
1218	0.358700
1219	0.358783
1220	0.358800
1221	0.358867
1222	0.358933
1223	0.358967
1224	0.359033
1225	0.359083
1226	0.359133
1228	0.359167
1229	0.359200
1230	0.359283
1231	0.359317
1232	0.359383
1233	0.359467
1235	0.359533
1236	0.359583
1237	0.359633
1238	0.359700
1239	0.359733
1240	0.359750
1242	0.359850
1243	0.359883
1244	0.359917
1245	0.359967
1246	0.360017
1247	0.360033
1248	0.360133
1249	0.360150
1250	0.360167
1251	0.360217
1252	0.360267
1253	0.360333
1256	0.360383
1257	0.360467
1258	0.360500
1259	0.360533
1260	0.360600
1261	0.360667
1262	0.360783
1263	0.360867
1264	0.360900
1265	0.360967
1266	0.361000
1267	0.361033
1269	0.361083
1270	0.361150
1271	0.361167
1272	0.361217
1273	0.361267
1274	0.361317
1275	0.361367
1276	0.361450
1277	0.361533
1278	0.361567
1279	0.361600
1280	0.361650
1281	0.361700
1282	0.361767
1283	0.361800
1284	0.361850
1285	0.361917
1286	0.362017
1287	0.362033
1288	0.362067
1289	0.362100
1290	0.362133
1291	0.362183
1292	0.362250
1293	0.362267
1294	0.362283
1295	0.362333
1296	0.362383
1297	0.362433
1298	0.362533
1299	0.362550
1300	0.362583
1301	0.362633
1302	0.362750
1303	0.362850
1305	0.362933
1306	0.362983
1307	0.363050
1308	0.363100
1309	0.363200
1310	0.363250
1311	0.363300
1312	0.363367
1313	0.363417
1314	0.363483
1315	0.363517
1316	0.363567
1317	0.363600
1318	0.363700
1319	0.363800
1320	0.363817
1321	0.363867
1322	0.363917
1323	0.363950
1324	0.364017
1325	0.364033
1326	0.364067
1327	0.364083
1328	0.364133
1329	0.364200
1330	0.364250
1331	0.364267
1332	0.364350
1333	0.364450
1334	0.364467
1335	0.364533
1336	0.364617
1337	0.364633
1338	0.364683
1339	0.364767
1340	0.364817
1341	0.364850
1342	0.364900
1343	0.364933
1344	0.365017
1345	0.365067
1346	0.365133
1347	0.365167
1348	0.365233
1349	0.365250
1350	0.365283
1351	0.365367
1352	0.365417
1353	0.365483
1354	0.365500
1355	0.365533
1356	0.365550
1357	0.365583
1358	0.365667
1359	0.365733
1360	0.365883
1361	0.365950
1362	0.365983
1363	0.366033
1364	0.366083
1365	0.366133
1366	0.366200
1367	0.366250
1369	0.366350
1370	0.366383
1371	0.366417
1372	0.366500
1373	0.366533
1374	0.366550
1375	0.366600
1376	0.366667
1377	0.366683
1378	0.366750
1379	0.366833
1380	0.366883
1381	0.366983
1382	0.367050
1383	0.367067
1384	0.367133
1385	0.367167
1386	0.367217
1387	0.367267
1388	0.367300
1389	0.367367
1390	0.367383
1391	0.367417
1392	0.367500
1393	0.367583
1394	0.367667
1395	0.367717
1396	0.367767
1397	0.367800
1398	0.367817
1399	0.367833
1400	0.367900
1401	0.367933
1402	0.367983
1403	0.368033
1404	0.368100
1405	0.368117
1406	0.368150
1407	0.368217
1408	0.368250
1410	0.368333
1412	0.368400
1413	0.368433
1414	0.368450
1416	0.368483
1418	0.368500
1419	0.368517
1420	0.368600
1421	0.368633
1422	0.368783
1423	0.368833
1425	0.368950
1426	0.369000
1427	0.369033
1428	0.369133
1429	0.369183
1430	0.369267
1432	0.369300
1433	0.369317
1434	0.369383
1435	0.369400
1436	0.369433
1437	0.369467
1438	0.369550
1439	0.369583
1440	0.369600
1441	0.369683
1443	0.369700
1444	0.369800
1445	0.369900
1446	0.369983
1448	0.370050
1449	0.370083
1450	0.370100
1451	0.370133
1452	0.370183
1453	0.370250
1454	0.370317
1455	0.370367
1456	0.370383
1457	0.370467
1458	0.370550
1459	0.370600
1460	0.370617
1461	0.370667
1462	0.370683
1463	0.370733
1466	0.370800
1467	0.370867
1468	0.370900
1469	0.370933
1470	0.371000
1471	0.371017
1472	0.371117
1473	0.371167
1474	0.371200
1475	0.371283
1476	0.371317
1477	0.371367
1478	0.371400
1479	0.371417
1480	0.371483
1481	0.371517
1482	0.371600
1483	0.371633
1484	0.371700
1485	0.371767
1486	0.371783
1487	0.371817
1488	0.371850
1489	0.371883
1490	0.371900
1491	0.371967
1492	0.371983
1494	0.372033
1495	0.372067
1496	0.372083
1497	0.372167
1498	0.372200
1499	0.372233
1501	0.372283
1502	0.372333
1503	0.372383
1504	0.372400
1505	0.372467
1506	0.372533
1507	0.372600
1508	0.372733
1509	0.372750
1510	0.372783
1511	0.372817
1512	0.372850
1513	0.372867
1514	0.372883
1518	0.372950
1519	0.372983
1520	0.373033
1521	0.373067
1522	0.373167
1523	0.373267
1524	0.373333
1525	0.373400
1526	0.373467
1527	0.373500
1528	0.373550
1529	0.373567
1530	0.373583
1531	0.373600
1532	0.373617
1533	0.373650
1534	0.373667
1535	0.373717
1536	0.373750
1537	0.373850
1538	0.373933
1539	0.374000
1540	0.374050
1541	0.374083
