key	frequency
0	0.142850
1	0.235367
2	0.309850
3	0.361017
4	0.398283
5	0.429317
6	0.454683
7	0.476250
8	0.494950
9	0.510317
10	0.523817
11	0.536267
12	0.546833
13	0.557533
14	0.566100
15	0.574417
16	0.582200
17	0.589550
18	0.596167
19	0.602717
20	0.609067
21	0.614117
22	0.619417
23	0.624133
24	0.628967
25	0.633583
26	0.637883
27	0.642033
28	0.645750
29	0.649617
30	0.652883
31	0.656583
32	0.659817
33	0.662917
34	0.665950
35	0.668500
36	0.671050
37	0.673533
38	0.676183
39	0.678783
40	0.681167
41	0.683700
42	0.685967
43	0.688667
44	0.690950
45	0.693167
46	0.695000
47	0.696967
48	0.699033
49	0.700867
50	0.702550
51	0.704533
52	0.706317
53	0.707883
54	0.709467
55	0.711150
56	0.712717
57	0.714267
58	0.715700
59	0.717183
60	0.718633
61	0.719983
62	0.721433
63	0.722767
64	0.724550
65	0.725917
66	0.727100
67	0.728350
68	0.729633
69	0.731167
70	0.732233
71	0.733400
72	0.734633
73	0.735867
74	0.737000
75	0.737900
76	0.739033
77	0.739917
78	0.741117
79	0.742367
80	0.743350
81	0.744067
82	0.744883
83	0.745567
84	0.746617
85	0.747550
86	0.748650
87	0.749533
88	0.750200
89	0.751000
90	0.751817
91	0.752633
92	0.753217
93	0.754000
94	0.754867
95	0.755600
96	0.756383
97	0.757250
98	0.758083
99	0.758917
100	0.759633
101	0.760433
102	0.761167
103	0.761983
104	0.762700
105	0.763433
106	0.764150
107	0.764917
108	0.765733
109	0.766333
110	0.766950
111	0.767700
112	0.768350
113	0.769017
114	0.769667
115	0.770317
116	0.770950
117	0.771567
118	0.771983
119	0.772483
120	0.772983
121	0.773667
122	0.774167
123	0.774750
124	0.775333
125	0.775800
126	0.776200
127	0.776733
128	0.777383
129	0.777933
130	0.778567
131	0.779017
132	0.779433
133	0.779933
134	0.780483
135	0.781033
136	0.781517
137	0.782017
138	0.782550
139	0.783167
140	0.783483
141	0.783750
142	0.784150
143	0.784683
144	0.785133
145	0.785633
146	0.786050
147	0.786467
148	0.786783
149	0.787067
150	0.787483
151	0.787883
152	0.788233
153	0.788667
154	0.789050
155	0.789267
156	0.789733
157	0.790050
158	0.790567
159	0.790883
160	0.791317
161	0.791833
162	0.792283
163	0.792700
164	0.793167
165	0.793633
166	0.794150
167	0.794567
168	0.794950
169	0.795283
170	0.795483
171	0.795833
172	0.796217
173	0.796533
174	0.796817
175	0.797217
176	0.797583
177	0.798033
178	0.798333
179	0.798683
180	0.799033
181	0.799283
182	0.799617
183	0.800000
184	0.800367
185	0.800583
186	0.800900
187	0.801250
188	0.801450
189	0.801817
190	0.802133
191	0.802483
192	0.802867
193	0.803000
194	0.803350
195	0.803667
196	0.803867
197	0.804217
198	0.804483
199	0.804867
200	0.805150
201	0.805517
202	0.805900
203	0.806383
204	0.806717
205	0.807033
206	0.807450
207	0.807717
208	0.807967
209	0.808333
210	0.808550
211	0.808783
212	0.809017
213	0.809333
214	0.809567
215	0.809867
216	0.810183
217	0.810600
218	0.810983
219	0.811267
220	0.811533
221	0.811867
222	0.812017
223	0.812183
224	0.812350
225	0.812517
226	0.812817
227	0.813033
228	0.813233
229	0.813433
230	0.813633
231	0.813833
232	0.814000
233	0.814300
234	0.814450
235	0.814717
236	0.815050
237	0.815233
238	0.815517
239	0.815750
240	0.816250
241	0.816400
242	0.816617
243	0.816917
244	0.817083
245	0.817333
246	0.817467
247	0.817717
248	0.817867
249	0.818083
250	0.818383
251	0.818517
252	0.818767
253	0.818950
254	0.819050
255	0.819317
256	0.819483
257	0.819717
258	0.820000
259	0.820200
260	0.820417
261	0.820717
262	0.820967
263	0.821233
264	0.821433
265	0.821617
266	0.821800
267	0.821983
268	0.822283
269	0.822600
270	0.822817
271	0.823050
272	0.823217
273	0.823467
274	0.823600
275	0.823833
276	0.824067
277	0.824217
278	0.824350
279	0.824567
280	0.824833
281	0.825050
282	0.825183
283	0.825350
284	0.825567
285	0.825817
286	0.826000
287	0.826183
288	0.826333
289	0.826467
290	0.826683
291	0.826800
292	0.826900
293	0.827050
294	0.827200
295	0.827317
296	0.827517
297	0.827667
298	0.827983
299	0.828167
300	0.828400
301	0.828650
302	0.828867
303	0.829183
304	0.829333
305	0.829533
306	0.829733
307	0.829917
308	0.830067
309	0.830200
310	0.830317
311	0.830500
312	0.830617
313	0.830817
314	0.831067
315	0.831250
316	0.831433
317	0.831533
318	0.831633
319	0.831783
320	0.832067
321	0.832217
322	0.832333
323	0.832467
324	0.832650
325	0.832800
326	0.832967
327	0.833133
328	0.833267
329	0.833350
330	0.833567
331	0.833750
332	0.833850
333	0.834083
334	0.834283
335	0.834483
336	0.834667
337	0.834783
338	0.834933
339	0.835100
340	0.835283
341	0.835433
342	0.835567
343	0.835750
344	0.835933
345	0.836117
346	0.836183
347	0.836367
348	0.836467
349	0.836517
350	0.836600
351	0.836750
352	0.836917
353	0.837017
354	0.837183
355	0.837300
356	0.837433
357	0.837550
358	0.837700
359	0.837833
360	0.837967
361	0.838067
362	0.838167
363	0.838300
364	0.838383
365	0.838467
366	0.838567
367	0.838733
368	0.838917
369	0.839017
370	0.839117
371	0.839267
372	0.839400
373	0.839550
374	0.839683
375	0.839950
376	0.840017
377	0.840183
378	0.840250
379	0.840367
380	0.840450
381	0.840600
382	0.840717
383	0.840850
384	0.841033
385	0.841150
386	0.841367
387	0.841433
388	0.841533
389	0.841650
390	0.841750
391	0.841883
392	0.842050
393	0.842100
394	0.842167
395	0.842367
396	0.842550
397	0.842650
398	0.842733
399	0.842817
400	0.842900
401	0.843000
402	0.843050
403	0.843150
404	0.843233
405	0.843350
406	0.843550
407	0.843667
408	0.843717
409	0.843833
410	0.844000
411	0.844100
412	0.844233
413	0.844300
414	0.844467
415	0.844583
416	0.844700
417	0.844867
418	0.844983
419	0.845050
420	0.845200
421	0.845250
422	0.845400
423	0.845633
424	0.845750
425	0.845817
426	0.845933
427	0.846000
428	0.846100
429	0.846183
430	0.846350
431	0.846433
432	0.846550
433	0.846667
434	0.846767
435	0.846933
436	0.847083
437	0.847200
438	0.847283
439	0.847350
440	0.847400
441	0.847533
442	0.847600
443	0.847717
444	0.847850
445	0.847967
446	0.848083
447	0.848233
448	0.848367
449	0.848450
450	0.848550
451	0.848683
452	0.848783
453	0.848867
454	0.849000
455	0.849067
456	0.849200
457	0.849317
458	0.849467
459	0.849500
460	0.849650
461	0.849817
462	0.849917
463	0.850000
464	0.850150
465	0.850233
466	0.850417
467	0.850467
468	0.850517
469	0.850617
470	0.850733
471	0.850817
472	0.850950
473	0.851017
474	0.851100
475	0.851200
476	0.851283
477	0.851500
478	0.851550
479	0.851633
480	0.851733
481	0.851783
482	0.851867
483	0.852017
484	0.852167
485	0.852250
486	0.852300
487	0.852367
488	0.852400
489	0.852517
490	0.852650
491	0.852750
492	0.852800
493	0.852900
494	0.852967
495	0.853067
496	0.853117
497	0.853250
498	0.853367
499	0.853500
500	0.853550
501	0.853667
502	0.853717
503	0.853817
504	0.853900
505	0.853933
506	0.854017
507	0.854050
508	0.854117
509	0.854200
510	0.854317
511	0.854400
512	0.854533
513	0.854600
514	0.854700
515	0.854767
516	0.854883
517	0.854983
518	0.855150
519	0.855217
520	0.855317
521	0.855467
522	0.855483
523	0.855583
524	0.855700
525	0.855833
526	0.855967
527	0.856067
528	0.856117
529	0.856233
530	0.856300
531	0.856400
532	0.856583
533	0.856683
534	0.856817
535	0.856883
536	0.856900
537	0.857033
538	0.857067
539	0.857133
540	0.857233
541	0.857317
542	0.857417
543	0.857483
544	0.857567
545	0.857683
546	0.857717
547	0.857783
548	0.857883
549	0.857933
550	0.858017
551	0.858133
552	0.858267
553	0.858333
554	0.858417
555	0.858517
556	0.858633
557	0.858683
558	0.858817
559	0.858833
560	0.858933
561	0.859033
562	0.859083
563	0.859133
564	0.859167
565	0.859233
566	0.859333
567	0.859400
568	0.859483
569	0.859600
570	0.859783
571	0.859950
572	0.860000
573	0.860100
574	0.860117
575	0.860233
576	0.860317
577	0.860417
578	0.860483
579	0.860517
580	0.860583
581	0.860650
582	0.860767
583	0.860900
584	0.861000
585	0.861117
587	0.861200
588	0.861300
589	0.861383
590	0.861483
591	0.861533
592	0.861600
593	0.861667
594	0.861717
595	0.861800
596	0.861933
597	0.862050
598	0.862183
599	0.862300
600	0.862333
601	0.862400
602	0.862450
603	0.862483
604	0.862533
605	0.862567
606	0.862633
608	0.862717
609	0.862767
610	0.862850
611	0.862917
612	0.862950
613	0.863000
614	0.863083
615	0.863100
616	0.863167
617	0.863250
618	0.863333
619	0.863383
620	0.863467
621	0.863533
622	0.863600
623	0.863683
624	0.863717
625	0.863817
626	0.863867
627	0.864017
628	0.864050
629	0.864167
630	0.864250
631	0.864267
632	0.864300
633	0.864400
634	0.864433
635	0.864567
636	0.864617
637	0.864683
638	0.864733
639	0.864867
640	0.865000
641	0.865067
642	0.865133
643	0.865200
644	0.865233
645	0.865300
646	0.865383
647	0.865533
648	0.865583
649	0.865683
650	0.865767
651	0.865817
652	0.865950
653	0.866000
654	0.866050
655	0.866150
656	0.866217
657	0.866283
658	0.866350
659	0.866400
660	0.866467
662	0.866550
663	0.866583
664	0.866683
665	0.866717
666	0.866850
667	0.866933
668	0.867000
669	0.867033
670	0.867083
671	0.867100
672	0.867117
674	0.867167
675	0.867200
676	0.867217
677	0.867267
678	0.867333
679	0.867433
680	0.867483
681	0.867517
682	0.867617
683	0.867683
684	0.867717
685	0.867800
686	0.867850
687	0.867867
688	0.867950
689	0.868067
690	0.868083
691	0.868100
692	0.868150
693	0.868217
694	0.868267
695	0.868333
696	0.868450
697	0.868483
698	0.868550
699	0.868583
700	0.868667
701	0.868717
702	0.868733
703	0.868833
704	0.868900
705	0.868933
706	0.869000
707	0.869100
708	0.869150
709	0.869217
710	0.869250
711	0.869383
712	0.869433
713	0.869500
714	0.869550
715	0.869600
716	0.869650
717	0.869767
718	0.869833
719	0.869900
720	0.869933
721	0.869983
723	0.870017
724	0.870100
725	0.870150
726	0.870200
727	0.870267
728	0.870317
729	0.870417
730	0.870450
731	0.870517
732	0.870533
733	0.870667
734	0.870683
735	0.870733
736	0.870783
737	0.870800
738	0.870833
739	0.870867
740	0.870933
741	0.871000
742	0.871083
743	0.871117
744	0.871150
745	0.871250
746	0.871267
748	0.871317
749	0.871350
750	0.871400
752	0.871417
753	0.871467
754	0.871550
755	0.871617
756	0.871683
757	0.871750
758	0.871767
759	0.871800
760	0.871850
761	0.871883
762	0.871967
763	0.872067
764	0.872100
765	0.872133
766	0.872167
767	0.872267
768	0.872317
769	0.872350
770	0.872367
771	0.872417
772	0.872450
773	0.872533
774	0.872583
775	0.872650
776	0.872750
777	0.872767
778	0.872867
780	0.872933
781	0.872967
782	0.873000
783	0.873067
784	0.873100
785	0.873133
787	0.873183
788	0.873233
789	0.873283
790	0.873400
791	0.873450
792	0.873517
793	0.873533
794	0.873633
795	0.873667
796	0.873700
797	0.873717
798	0.873800
799	0.873850
800	0.873883
801	0.873933
802	0.873950
803	0.874033
804	0.874100
805	0.874167
806	0.874217
807	0.874283
808	0.874317
810	0.874367
811	0.874400
812	0.874450
813	0.874467
814	0.874483
815	0.874517
816	0.874583
817	0.874667
818	0.874733
819	0.874750
820	0.874833
821	0.874933
822	0.875017
823	0.875050
824	0.875133
825	0.875167
826	0.875217
827	0.875283
828	0.875317
829	0.875417
830	0.875467
831	0.875500
832	0.875550
833	0.875583
834	0.875650
835	0.875667
836	0.875717
837	0.875783
838	0.875850
839	0.875883
840	0.875900
841	0.875967
842	0.876017
843	0.876067
844	0.876083
845	0.876100
846	0.876133
847	0.876183
848	0.876217
849	0.876233
850	0.876283
851	0.876300
852	0.876333
853	0.876417
854	0.876433
855	0.876517
856	0.876567
857	0.876617
858	0.876667
859	0.876700
860	0.876750
861	0.876767
862	0.876833
863	0.876850
864	0.876883
865	0.876900
866	0.877000
867	0.877033
868	0.877050
869	0.877100
870	0.877167
871	0.877183
872	0.877267
873	0.877300
874	0.877383
875	0.877417
876	0.877467
877	0.877533
878	0.877550
879	0.877567
880	0.877600
881	0.877700
882	0.877750
883	0.877800
884	0.877850
885	0.877933
886	0.877983
887	0.878033
888	0.878050
889	0.878133
890	0.878217
891	0.878250
892	0.878267
893	0.878283
894	0.878317
895	0.878367
896	0.878383
897	0.878450
898	0.878550
899	0.878683
900	0.878817
901	0.878867
902	0.878883
903	0.878933
904	0.878967
905	0.878983
906	0.879033
907	0.879083
908	0.879117
910	0.879133
911	0.879150
912	0.879183
913	0.879233
914	0.879283
915	0.879317
916	0.879350
917	0.879367
918	0.879400
919	0.879450
920	0.879500
921	0.879550
922	0.879567
923	0.879600
924	0.879617
925	0.879650
926	0.879717
927	0.879767
928	0.879817
929	0.879883
930	0.879933
931	0.880000
932	0.880017
933	0.880050
934	0.880083
935	0.880100
936	0.880183
937	0.880200
938	0.880217
939	0.880233
940	0.880250
941	0.880283
942	0.880333
943	0.880367
944	0.880400
945	0.880467
946	0.880500
947	0.880583
948	0.880600
949	0.880617
950	0.880667
951	0.880733
952	0.880817
953	0.880833
954	0.880867
956	0.880900
957	0.880967
958	0.881000
959	0.881050
962	0.881100
963	0.881117
964	0.881133
965	0.881183
966	0.881283
967	0.881317
968	0.881367
969	0.881433
970	0.881483
972	0.881550
973	0.881583
974	0.881650
975	0.881717
976	0.881750
977	0.881817
978	0.881850
979	0.881917
980	0.881933
981	0.881967
982	0.882017
983	0.882050
984	0.882067
985	0.882133
987	0.882167
988	0.882183
989	0.882217
991	0.882267
992	0.882333
993	0.882367
994	0.882400
995	0.882450
996	0.882467
997	0.882517
998	0.882550
999	0.882633
1000	0.882650
1001	0.882717
1002	0.882750
1003	0.882800
1004	0.882867
1006	0.882900
1007	0.882983
1008	0.883017
1010	0.883083
1011	0.883117
1012	0.883150
1013	0.883217
1014	0.883283
1015	0.883317
1016	0.883333
1017	0.883367
1018	0.883383
1019	0.883417
1020	0.883450
1021	0.883500
1022	0.883533
1023	0.883617
1024	0.883667
1025	0.883700
1026	0.883733
1027	0.883767
1028	0.883783
1029	0.883800
1030	0.883850
1031	0.883900
1032	0.883950
1033	0.884000
1034	0.884050
1036	0.884083
1037	0.884117
1038	0.884200
1039	0.884250
1041	0.884300
1042	0.884317
1044	0.884350
1045	0.884383
1046	0.884400
1047	0.884417
1048	0.884433
1049	0.884450
1050	0.884483
1051	0.884567
1052	0.884600
1053	0.884650
1054	0.884683
1055	0.884700
1056	0.884733
1057	0.884817
1058	0.884883
1059	0.884933
1060	0.884967
1062	0.885017
1063	0.885083
1064	0.885167
1065	0.885200
1066	0.885233
1067	0.885283
1069	0.885300
1070	0.885333
1071	0.885367
1072	0.885400
1073	0.885417
1074	0.885467
1077	0.885533
1079	0.885583
1080	0.885600
1081	0.885667
1082	0.885683
1083	0.885733
1084	0.885800
1086	0.885833
1088	0.885850
1089	0.885867
1090	0.885883
1091	0.885933
1092	0.885967
1094	0.886017
1095	0.886050
1096	0.886117
1097	0.886167
1098	0.886183
1100	0.886217
1101	0.886233
1102	0.886300
1103	0.886350
1105	0.886400
1106	0.886433
1107	0.886450
1109	0.886500
1110	0.886517
1111	0.886533
1112	0.886550
1113	0.886650
1115	0.886683
1116	0.886750
1117	0.886833
1118	0.886850
1119	0.886867
1120	0.886933
1121	0.887017
1122	0.887050
1123	0.887100
1124	0.887117
1126	0.887150
1127	0.887167
1128	0.887233
1129	0.887267
1130	0.887300
1131	0.887367
1132	0.887383
1133	0.887417
1135	0.887450
1137	0.887500
1138	0.887550
1139	0.887583
1140	0.887650
1141	0.887667
1143	0.887700
1146	0.887767
1147	0.887850
1148	0.887900
1149	0.887933
1150	0.888000
1151	0.888017
1152	0.888033
1153	0.888050
1154	0.888100
1155	0.888150
1156	0.888217
1157	0.888283
1158	0.888300
1159	0.888333
1160	0.888350
1161	0.888367
1162	0.888383
1163	0.888417
1164	0.888450
1165	0.888467
1166	0.888483
1167	0.888517
1170	0.888550
1172	0.888583
1173	0.888600
1174	0.888633
1177	0.888650
1179	0.888667
1180	0.888733
1181	0.888800
1183	0.888833
1184	0.888850
1185	0.888883
1186	0.888917
1188	0.888950
1189	0.888967
1190	0.888983
1191	0.889017
1192	0.889050
1193	0.889083
1194	0.889117
1195	0.889167
1196	0.889200
1197	0.889250
1199	0.889267
1200	0.889317
1201	0.889350
1202	0.889383
1204	0.889450
1206	0.889467
1207	0.889483
1208	0.889533
1209	0.889583
1211	0.889633
1212	0.889667
1213	0.889700
1214	0.889717
1216	0.889750
1217	0.889800
1218	0.889867
1219	0.889883
1220	0.889900
1221	0.889917
1222	0.889950
1223	0.889983
1224	0.890033
1225	0.890067
1226	0.890100
1227	0.890133
1229	0.890167
1230	0.890217
1231	0.890233
1232	0.890267
1233	0.890283
1234	0.890317
1235	0.890333
1236	0.890350
1237	0.890367
1238	0.890383
1239	0.890400
1240	0.890417
1242	0.890467
1243	0.890500
1244	0.890550
1245	0.890633
1246	0.890650
1247	0.890683
1248	0.890717
1250	0.890750
1252	0.890783
1254	0.890800
1255	0.890817
1257	0.890850
1259	0.890917
1260	0.890950
1261	0.891033
1262	0.891083
1263	0.891100
1264	0.891133
1265	0.891167
1266	0.891200
1267	0.891267
1268	0.891283
1269	0.891300
1271	0.891333
1273	0.891367
1274	0.891383
1275	0.891417
1276	0.891483
1277	0.891517
1278	0.891533
1279	0.891583
1280	0.891600
1281	0.891667
1282	0.891700
1283	0.891733
1285	0.891750
1286	0.891767
1287	0.891800
1288	0.891817
1290	0.891883
1291	0.891917
1294	0.891933
1295	0.891967
1296	0.892017
1297	0.892033
1298	0.892083
1299	0.892117
1300	0.892133
1301	0.892183
1302	0.892233
1303	0.892250
1304	0.892300
1305	0.892317
1306	0.892367
1307	0.892383
1308	0.892417
1309	0.892450
1311	0.892467
1314	0.892483
1315	0.892517
1317	0.892583
1318	0.892617
1319	0.892633
1321	0.892650
1322	0.892683
1323	0.892750
1324	0.892783
1325	0.892800
1328	0.892817
1329	0.892850
1334	0.892900
1335	0.892950
1336	0.892967
1337	0.892983
1338	0.893033
1339	0.893050
1340	0.893083
1341	0.893100
1342	0.893133
1343	0.893167
1344	0.893183
1345	0.893200
1346	0.893250
1347	0.893267
1348	0.893300
1349	0.893333
1350	0.893400
1351	0.893433
1352	0.893450
1353	0.893500
1355	0.893517
1356	0.893533
1357	0.893567
1358	0.893583
1359	0.893600
1360	0.893633
1361	0.893650
1362	0.893667
1364	0.893717
1365	0.893767
1366	0.893817
1368	0.893833
1372	0.893867
1373	0.893900
1374	0.893933
1375	0.893950
1376	0.894000
1377	0.894033
1378	0.894050
1379	0.894067
1380	0.894083
1381	0.894117
1382	0.894167
1383	0.894200
1384	0.894217
1385	0.894267
1386	0.894300
1387	0.894333
1388	0.894367
1389	0.894400
1390	0.894433
1391	0.894467
1392	0.894483
1393	0.894500
1394	0.894533
1398	0.894567
1401	0.894583
1402	0.894600
1403	0.894617
1404	0.894633
1405	0.894683
1406	0.894717
1408	0.894733
1410	0.894767
1411	0.894783
1412	0.894800
1413	0.894833
1415	0.894850
1416	0.894883
1417	0.894933
1418	0.894950
1419	0.894967
1420	0.895000
1421	0.895017
1422	0.895033
1423	0.895050
1424	0.895067
1425	0.895100
1426	0.895117
1427	0.895133
1428	0.895167
1429	0.895200
1431	0.895217
1432	0.895250
1433	0.895267
1434	0.895300
1435	0.895317
1436	0.895350
1438	0.895367
1439	0.895400
1440	0.895417
1442	0.895450
1445	0.895467
1446	0.895483
1448	0.895500
1449	0.895517
1450	0.895567
1451	0.895600
1453	0.895617
1454	0.895650
1455	0.895667
1456	0.895683
1457	0.895733
1460	0.895750
1461	0.895767
1462	0.895833
1465	0.895850
1466	0.895867
1467	0.895900
1468	0.895917
1469	0.895933
1470	0.895950
1472	0.895967
1473	0.895983
1474	0.896033
1476	0.896067
1477	0.896083
1478	0.896117
1479	0.896150
1484	0.896200
1485	0.896250
1487	0.896283
1488	0.896317
1489	0.896350
1491	0.896383
1492	0.896400
1493	0.896467
1496	0.896550
1497	0.896583
1498	0.896600
1499	0.896633
1501	0.896700
1502	0.896733
1503	0.896800
1504	0.896833
1505	0.896850
1507	0.896867
1508	0.896883
1509	0.896933
1511	0.896967
1512	0.896983
1513	0.897017
1514	0.897033
1515	0.897067
1516	0.897083
1517	0.897100
1520	0.897117
1523	0.897150
1524	0.897167
1525	0.897217
1526	0.897250
1527	0.897267
1528	0.897317
1530	0.897333
1531	0.897383
1533	0.897400
1534	0.897417
1535	0.897467
1536	0.897517
1537	0.897533
1539	0.897583
1541	0.897617
1542	0.897650
1543	0.897683
1545	0.897700
1546	0.897717
1547	0.897750
1548	0.897783
1549	0.897800
1550	0.897833
1551	0.897867
1552	0.897883
1553	0.897900
1554	0.897917
1556	0.897950
1557	0.898000
1561	0.898017
1562	0.898033
1563	0.898050
1564	0.898083
1565	0.898133
1566	0.898150
1567	0.898167
1568	0.898183
1569	0.898233
1570	0.898250
1571	0.898267
1573	0.898333
1574	0.898350
1575	0.898383
1576	0.898417
1578	0.898450
1579	0.898483
1580	0.898517
1581	0.898533
1582	0.898550
1584	0.898583
1587	0.898633
1588	0.898667
1589	0.898683
1590	0.898700
1591	0.898717
1592	0.898750
1594	0.898800
1598	0.898833
1599	0.898867
1600	0.898883
1601	0.898900
1602	0.898917
1604	0.898967
1606	0.898983
1607	0.899017
1608	0.899083
1609	0.899100
1611	0.899117
1613	0.899133
1614	0.899150
1617	0.899183
1618	0.899200
1619	0.899217
1621	0.899250
1622	0.899267
1623	0.899300
1625	0.899333
1630	0.899350
1631	0.899367
1632	0.899383
1633	0.899400
1635	0.899450
1636	0.899483
1637	0.899500
1638	0.899517
1639	0.899550
1640	0.899617
1642	0.899650
1644	0.899700
1645	0.899733
1647	0.899750
1648	0.899767
1649	0.899783
1651	0.899817
1653	0.899833
1654	0.899850
1656	0.899867
1657	0.899900
1661	0.899950
1662	0.899967
1663	0.899983
