key	frequency
0	0.001900
1	0.003100
2	0.004000
3	0.004400
4	0.005200
5	0.005800
6	0.006400
7	0.006800
8	0.007200
9	0.007700
10	0.008000
11	0.008300
12	0.008800
13	0.009200
14	0.009600
15	0.009700
16	0.009800
17	0.010000
18	0.010400
19	0.010700
20	0.010900
21	0.011000
24	0.011200
25	0.011300
26	0.011500
27	0.011600
28	0.011700
29	0.012000
31	0.012300
32	0.012400
34	0.012500
35	0.012700
37	0.013000
39	0.013100
40	0.013400
41	0.013700
42	0.014000
43	0.014600
44	0.014700
45	0.015000
46	0.015200
48	0.015400
49	0.015500
50	0.015700
51	0.015800
52	0.015900
53	0.016500
54	0.016600
55	0.016700
56	0.016800
57	0.017100
58	0.017400
62	0.017500
63	0.017600
64	0.017700
65	0.017800
67	0.017900
68	0.018200
69	0.018300
70	0.018400
72	0.018600
73	0.018800
74	0.019000
75	0.019200
77	0.019500
78	0.019600
79	0.019800
80	0.020000
83	0.020200
84	0.020500
85	0.020600
88	0.020700
91	0.020900
92	0.021200
93	0.021400
94	0.021500
95	0.021700
96	0.022000
97	0.022100
98	0.022200
99	0.022300
102	0.022400
103	0.022500
104	0.022700
105	0.022800
106	0.022900
107	0.023100
108	0.023200
109	0.023300
111	0.023400
112	0.023500
113	0.023600
115	0.023700
116	0.023900
117	0.024100
118	0.024200
120	0.024300
121	0.024400
122	0.024700
123	0.024900
124	0.025000
125	0.025100
127	0.025200
128	0.025300
129	0.025400
130	0.025500
132	0.025800
133	0.026100
136	0.026300
138	0.026700
139	0.026900
146	0.027000
147	0.027100
148	0.027200
151	0.027300
152	0.027400
154	0.027700
158	0.027800
159	0.028000
162	0.028100
163	0.028200
164	0.028400
166	0.028500
167	0.028700
168	0.028800
171	0.028900
172	0.029100
174	0.029200
176	0.029300
182	0.029400
183	0.029500
187	0.029600
189	0.029700
191	0.029800
194	0.030000
196	0.030200
197	0.030400
200	0.030500
201	0.030800
203	0.031000
204	0.031100
205	0.031200
207	0.031300
209	0.031600
210	0.031700
212	0.031800
215	0.031900
216	0.032100
219	0.032300
221	0.032400
222	0.032500
227	0.032600
237	0.032700
238	0.032800
239	0.032900
243	0.033100
249	0.033300
250	0.033500
253	0.033700
254	0.033800
256	0.033900
257	0.034000
263	0.034200
265	0.034300
266	0.034400
269	0.034500
273	0.034600
274	0.034700
276	0.034800
279	0.034900
281	0.035000
287	0.035200
295	0.035300
306	0.035400
308	0.035500
313	0.035600
314	0.035700
317	0.035800
319	0.035900
320	0.036000
322	0.036100
324	0.036300
329	0.036400
330	0.036500
331	0.036700
333	0.036800
334	0.036900
335	0.037000
337	0.037100
339	0.037200
341	0.037300
342	0.037400
343	0.037600
347	0.037700
351	0.037800
352	0.037900
353	0.038100
356	0.038200
364	0.038300
365	0.038400
367	0.038600
369	0.038700
371	0.038900
372	0.039000
374	0.039300
377	0.039400
378	0.039500
379	0.039600
380	0.039800
381	0.039900
382	0.040200
383	0.040400
391	0.040600
393	0.040700
394	0.040900
397	0.041000
398	0.041100
403	0.041200
404	0.041300
408	0.041400
411	0.041600
412	0.041700
413	0.041900
415	0.042000
416	0.042100
417	0.042200
419	0.042300
420	0.042400
421	0.042500
424	0.042600
425	0.042700
426	0.042900
427	0.043000
430	0.043100
432	0.043300
433	0.043400
438	0.043500
439	0.043600
440	0.043700
442	0.043800
444	0.044000
447	0.044100
449	0.044200
454	0.044500
456	0.044600
458	0.044700
461	0.044800
462	0.044900
466	0.045000
467	0.045100
473	0.045200
478	0.045300
479	0.045400
486	0.045500
489	0.045600
492	0.045800
496	0.045900
497	0.046000
500	0.046200
501	0.046400
510	0.046600
513	0.046700
516	0.046800
517	0.047000
519	0.047100
521	0.047200
528	0.047300
529	0.047400
530	0.047500
537	0.047600
540	0.047700
541	0.047800
547	0.047900
557	0.048000
569	0.048100
570	0.048300
571	0.048400
574	0.048500
588	0.048600
590	0.048700
592	0.048800
597	0.048900
601	0.049000
608	0.049100
619	0.049200
622	0.049300
625	0.049400
627	0.049500
629	0.049600
635	0.049700
648	0.049800
650	0.049900
651	0.050000
652	0.050100
671	0.050200
672	0.050300
674	0.050500
679	0.050600
680	0.050700
683	0.050800
684	0.050900
686	0.051000
691	0.051100
692	0.051200
698	0.051300
699	0.051500
703	0.051600
705	0.051700
706	0.051800
708	0.051900
716	0.052100
721	0.052200
724	0.052300
730	0.052400
733	0.052500
735	0.052700
741	0.052800
743	0.052900
747	0.053000
753	0.053200
754	0.053300
756	0.053400
760	0.053600
763	0.053800
766	0.053900
770	0.054000
771	0.054200
775	0.054300
785	0.054500
788	0.054600
789	0.054700
794	0.054800
798	0.055100
801	0.055200
803	0.055300
814	0.055400
825	0.055500
826	0.055600
831	0.055700
832	0.055800
836	0.055900
841	0.056000
842	0.056100
847	0.056200
848	0.056400
850	0.056500
852	0.056600
855	0.056700
862	0.056800
863	0.056900
865	0.057000
867	0.057100
870	0.057200
873	0.057300
874	0.057500
879	0.057600
880	0.057700
883	0.057800
888	0.057900
894	0.058000
906	0.058100
907	0.058200
917	0.058400
922	0.058500
926	0.058600
927	0.058700
937	0.058800
938	0.058900
940	0.059000
943	0.059100
945	0.059200
955	0.059300
960	0.059400
966	0.059500
971	0.059600
974	0.059700
976	0.059800
978	0.059900
979	0.060000
984	0.060100
985	0.060200
987	0.060300
988	0.060400
991	0.060600
1018	0.060800
1020	0.060900
1021	0.061000
1022	0.061100
1035	0.061200
1036	0.061300
1037	0.061400
1038	0.061500
1042	0.061600
1045	0.061700
1050	0.061900
1057	0.062000
1063	0.062100
1066	0.062200
1071	0.062300
1078	0.062400
1082	0.062500
1086	0.062600
1087	0.062700
1091	0.062900
1095	0.063000
1096	0.063100
1103	0.063200
1107	0.063300
1113	0.063400
1114	0.063500
1115	0.063600
1120	0.063700
1131	0.063800
1139	0.063900
1144	0.064000
1147	0.064100
1148	0.064200
1152	0.064300
1154	0.064400
1156	0.064500
1162	0.064600
1164	0.064700
1174	0.064800
1175	0.064900
1180	0.065000
1181	0.065100
1189	0.065200
1193	0.065300
1200	0.065400
1206	0.065500
1208	0.065600
1220	0.065700
1226	0.065900
1228	0.066000
1230	0.066100
1232	0.066200
1236	0.066300
1239	0.066400
1262	0.066500
1274	0.066600
1281	0.066700
1283	0.066800
1289	0.066900
1290	0.067000
1298	0.067100
1309	0.067200
1311	0.067300
1316	0.067400
1319	0.067500
1320	0.067600
1323	0.067700
1333	0.067800
1340	0.067900
1342	0.068000
1349	0.068100
1358	0.068200
1371	0.068300
1372	0.068400
1374	0.068500
1377	0.068600
1385	0.068700
1386	0.068800
1391	0.068900
1393	0.069000
1398	0.069100
1399	0.069200
1400	0.069300
1402	0.069400
1405	0.069500
1413	0.069600
1415	0.069700
1417	0.069800
1431	0.069900
1444	0.070000
1446	0.070200
1456	0.070300
1462	0.070400
1463	0.070500
1468	0.070600
1471	0.070700
1483	0.070800
1497	0.070900
1503	0.071000
1511	0.071100
1517	0.071200
1519	0.071300
1528	0.071400
1538	0.071500
1541	0.071600
1548	0.071700
1555	0.071800
1564	0.071900
1566	0.072000
1571	0.072100
1574	0.072200
1580	0.072400
1582	0.072500
1586	0.072600
1593	0.072700
1595	0.072800
1598	0.072900
1599	0.073000
1606	0.073100
1607	0.073200
1610	0.073300
1626	0.073400
1633	0.073600
1634	0.073700
1639	0.073800
1641	0.073900
1642	0.074000
1649	0.074100
1652	0.074200
1653	0.074300
1658	0.074500
1663	0.074600
1665	0.074700
1666	0.074800
1671	0.074900
1672	0.075000
1685	0.075100
1686	0.075200
1691	0.075300
1693	0.075400
1700	0.075500
1710	0.075600
1714	0.075700
1718	0.075800
1721	0.075900
1728	0.076000
1751	0.076100
1767	0.076200
1775	0.076400
1782	0.076500
1788	0.076600
1793	0.076700
1797	0.076800
1798	0.076900
1799	0.077000
1806	0.077100
1807	0.077200
1808	0.077300
1812	0.077400
1816	0.077500
1823	0.077600
1824	0.077700
1832	0.077800
1835	0.077900
1849	0.078000
1876	0.078100
1878	0.078200
1880	0.078300
1892	0.078400
1903	0.078500
1908	0.078600
1912	0.078700
1925	0.078800
1937	0.078900
1943	0.079000
1954	0.079100
1958	0.079200
1964	0.079300
1972	0.079500
1976	0.079600
1977	0.079700
1989	0.079800
2001	0.079900
2018	0.080100
2025	0.080300
2032	0.080500
2043	0.080600
2050	0.080700
2071	0.080800
2087	0.080900
2091	0.081000
2098	0.081100
2106	0.081200
2113	0.081300
2114	0.081400
2115	0.081500
2136	0.081600
2144	0.081700
2152	0.081800
2162	0.081900
2170	0.082000
2177	0.082100
2197	0.082200
2204	0.082300
2211	0.082400
2213	0.082500
2216	0.082600
2218	0.082800
2237	0.082900
2240	0.083000
2247	0.083100
2249	0.083200
2259	0.083300
2264	0.083400
2271	0.083500
2275	0.083700
2294	0.083800
2305	0.083900
2312	0.084000
2317	0.084100
2321	0.084200
2324	0.084300
2330	0.084400
2340	0.084500
2352	0.084600
2355	0.084700
2356	0.084800
2360	0.084900
2374	0.085000
2381	0.085100
2383	0.085200
2396	0.085300
2397	0.085400
2402	0.085500
2405	0.085600
2407	0.085700
2409	0.085800
2425	0.085900
2428	0.086000
2439	0.086100
2446	0.086200
2449	0.086300
2450	0.086400
2455	0.086500
2461	0.086600
2474	0.086700
2480	0.086800
2484	0.086900
2490	0.087000
2493	0.087100
2504	0.087200
2509	0.087300
2512	0.087400
2513	0.087500
2515	0.087600
2528	0.087700
2530	0.087800
2565	0.087900
2586	0.088000
2617	0.088100
2622	0.088200
2624	0.088300
2625	0.088400
2633	0.088500
2648	0.088600
2652	0.088700
2653	0.088800
2659	0.088900
2665	0.089000
2666	0.089100
2669	0.089200
2679	0.089300
2698	0.089400
2704	0.089500
2705	0.089600
2719	0.089700
2725	0.089800
2730	0.089900
2734	0.090000
2740	0.090100
2742	0.090200
2749	0.090300
2751	0.090400
2755	0.090500
2761	0.090600
2789	0.090700
2790	0.090800
2791	0.090900
2801	0.091000
2803	0.091100
2807	0.091200
2818	0.091300
2846	0.091400
2859	0.091500
2894	0.091700
2911	0.091800
2919	0.091900
2920	0.092000
2922	0.092100
2940	0.092200
2944	0.092300
2952	0.092400
2962	0.092500
2973	0.092600
2975	0.092700
2979	0.092800
2987	0.092900
2995	0.093000
2996	0.093100
3003	0.093200
3006	0.093300
3011	0.093400
3012	0.093500
3013	0.093600
3018	0.093700
3023	0.093800
3030	0.093900
3032	0.094000
3036	0.094100
3039	0.094200
3042	0.094300
3065	0.094400
3069	0.094600
3079	0.094800
3081	0.094900
3124	0.095000
3127	0.095100
3137	0.095200
3144	0.095300
3150	0.095400
3158	0.095500
3164	0.095600
3169	0.095800
3185	0.095900
3197	0.096000
3209	0.096100
3222	0.096200
3223	0.096300
3225	0.096400
3229	0.096500
3256	0.096600
3266	0.096700
3267	0.096800
3276	0.096900
3286	0.097000
3288	0.097100
3291	0.097200
3295	0.097300
3331	0.097400
3378	0.097600
3380	0.097700
3389	0.097800
3391	0.097900
3430	0.098000
3446	0.098100
3454	0.098200
3460	0.098300
3465	0.098400
3468	0.098600
3487	0.098700
3493	0.098800
3501	0.098900
3537	0.099000
3541	0.099100
3545	0.099200
3550	0.099300
3561	0.099500
3564	0.099600
3569	0.099700
3574	0.099800
3589	0.099900
3597	0.100000
3616	0.100100
3626	0.100200
3637	0.100300
3638	0.100400
3653	0.100500
3657	0.100600
3658	0.100700
3659	0.100800
3677	0.100900
3685	0.101000
3694	0.101100
3696	0.101200
3709	0.101300
3711	0.101400
3717	0.101500
3725	0.101600
3726	0.101700
3732	0.101800
3744	0.101900
3757	0.102000
3770	0.102100
3777	0.102200
3779	0.102300
3780	0.102400
3784	0.102500
3799	0.102700
3801	0.102800
3824	0.102900
3830	0.103000
3836	0.103100
3838	0.103200
3849	0.103300
3885	0.103400
3898	0.103500
3900	0.103600
3917	0.103700
3919	0.103800
3940	0.103900
3944	0.104000
3951	0.104100
3962	0.104200
3974	0.104300
3987	0.104400
3990	0.104500
3998	0.104600
4014	0.104700
4015	0.104800
4022	0.104900
4027	0.105000
4062	0.105100
4073	0.105200
4074	0.105300
4095	0.105400
4102	0.105500
4118	0.105600
4119	0.105700
4130	0.105800
4134	0.105900
4146	0.106000
4181	0.106100
4195	0.106200
4237	0.106300
4241	0.106400
4253	0.106600
4263	0.106700
4264	0.106800
4274	0.106900
4300	0.107000
4305	0.107100
4306	0.107200
4308	0.107300
4330	0.107400
4331	0.107500
4335	0.107600
4349	0.107700
4358	0.107800
4363	0.107900
4373	0.108000
4384	0.108100
4386	0.108200
4387	0.108300
4388	0.108400
4397	0.108500
4438	0.108600
4445	0.108700
4453	0.108800
4460	0.108900
4464	0.109000
4475	0.109100
4477	0.109200
4481	0.109300
4501	0.109400
4503	0.109500
4522	0.109600
4533	0.109700
4545	0.109800
4551	0.109900
4552	0.110100
4559	0.110200
4564	0.110300
4570	0.110400
4574	0.110500
4580	0.110600
4584	0.110700
4588	0.110800
4591	0.110900
4598	0.111000
4606	0.111100
4613	0.111200
4628	0.111300
4632	0.111500
4636	0.111700
4705	0.111800
4711	0.112000
4737	0.112100
4739	0.112200
4747	0.112300
4749	0.112400
4755	0.112500
4759	0.112600
4762	0.112700
4767	0.112800
4810	0.112900
4815	0.113100
4822	0.113200
4826	0.113300
4838	0.113400
4846	0.113600
4847	0.113700
4869	0.113800
4876	0.113900
4881	0.114000
4907	0.114100
4908	0.114300
4912	0.114400
4916	0.114500
4923	0.114600
4929	0.114700
4946	0.114800
4952	0.114900
4954	0.115000
4955	0.115100
4958	0.115200
4966	0.115300
4971	0.115400
4973	0.115500
4992	0.115600
4998	0.115700
5013	0.115800
5027	0.115900
5028	0.116000
5034	0.116100
5049	0.116200
5060	0.116300
5095	0.116400
5096	0.116500
5106	0.116600
5109	0.116700
5131	0.116800
5133	0.116900
5142	0.117000
5175	0.117100
5177	0.117200
5179	0.117300
5191	0.117400
5193	0.117500
5198	0.117600
5199	0.117700
5200	0.117800
5241	0.117900
5246	0.118000
5247	0.118100
5253	0.118200
5293	0.118300
5295	0.118400
5310	0.118500
5333	0.118600
5375	0.118700
5388	0.118800
5392	0.118900
5396	0.119000
5417	0.119100
5418	0.119200
5425	0.119300
5437	0.119500
5441	0.119600
5443	0.119700
5464	0.119800
5465	0.119900
5467	0.120000
5478	0.120100
5515	0.120200
5517	0.120300
5520	0.120400
5523	0.120500
5529	0.120600
5533	0.120700
5537	0.120800
5544	0.120900
5576	0.121100
5577	0.121200
5589	0.121300
5618	0.121400
5625	0.121500
5641	0.121600
5662	0.121700
5674	0.121800
5691	0.121900
5707	0.122000
5720	0.122100
5740	0.122200
5741	0.122300
5749	0.122400
5757	0.122500
5758	0.122600
5759	0.122700
5765	0.122800
5809	0.122900
5831	0.123000
5849	0.123100
5863	0.123200
5871	0.123300
5876	0.123400
5878	0.123500
5893	0.123600
5903	0.123700
5912	0.123800
5914	0.123900
5931	0.124000
5940	0.124100
5942	0.124200
5967	0.124300
5968	0.124400
5971	0.124500
5981	0.124700
5988	0.124800
6013	0.124900
6014	0.125000
6019	0.125100
6020	0.125200
6053	0.125300
6068	0.125400
6081	0.125500
6095	0.125600
6115	0.125700
6153	0.125800
6162	0.125900
6165	0.126000
6169	0.126100
6173	0.126200
6202	0.126300
6206	0.126400
6212	0.126500
6239	0.126600
6242	0.126700
6247	0.126800
6253	0.126900
6266	0.127000
6288	0.127100
6297	0.127200
6315	0.127300
6320	0.127400
6328	0.127500
6337	0.127600
6338	0.127700
6364	0.127800
6365	0.127900
6388	0.128000
6417	0.128100
6424	0.128200
6431	0.128300
6437	0.128400
6457	0.128500
6460	0.128600
6461	0.128700
6467	0.128800
6468	0.128900
6483	0.129000
6503	0.129100
6513	0.129200
6516	0.129300
6526	0.129400
6578	0.129500
6591	0.129600
6603	0.129800
6609	0.129900
6614	0.130000
6616	0.130100
6624	0.130200
6649	0.130300
6654	0.130400
6661	0.130500
6663	0.130600
6687	0.130700
6705	0.130800
6712	0.130900
6721	0.131000
6754	0.131100
6755	0.131200
6766	0.131300
6769	0.131400
6781	0.131500
6796	0.131600
6820	0.131700
6865	0.131800
6874	0.131900
6898	0.132000
6913	0.132100
6916	0.132200
6925	0.132300
6929	0.132400
6937	0.132500
6958	0.132600
6965	0.132800
6996	0.132900
6999	0.133000
7004	0.133200
7026	0.133300
7028	0.133400
7042	0.133500
7052	0.133600
7117	0.133700
7119	0.133800
7137	0.133900
7160	0.134000
7177	0.134100
7180	0.134200
7186	0.134300
7196	0.134400
7204	0.134500
7249	0.134600
7259	0.134700
7278	0.134800
7282	0.134900
7342	0.135000
7343	0.135100
7353	0.135200
7360	0.135300
7372	0.135400
7386	0.135500
7401	0.135600
7408	0.135700
7437	0.135800
7446	0.135900
7466	0.136000
7478	0.136100
7480	0.136200
7496	0.136300
7499	0.136400
7502	0.136500
7523	0.136600
7529	0.136700
7575	0.136800
7581	0.136900
7631	0.137000
7643	0.137100
7649	0.137200
7678	0.137300
7722	0.137400
7730	0.137500
7778	0.137700
7781	0.137800
7792	0.138000
7819	0.138100
7821	0.138200
7837	0.138300
7842	0.138400
7844	0.138500
7850	0.138600
7873	0.138700
7908	0.138800
7910	0.138900
7924	0.139000
7931	0.139100
7938	0.139200
7951	0.139300
7952	0.139400
7954	0.139500
7962	0.139600
7977	0.139700
7987	0.139800
7995	0.139900
8013	0.140000
8020	0.140100
8024	0.140200
8055	0.140300
8070	0.140400
8092	0.140500
8117	0.140600
8143	0.140700
8148	0.140800
8174	0.140900
8180	0.141000
8211	0.141100
8259	0.141200
8261	0.141300
8269	0.141400
8306	0.141500
8315	0.141600
8337	0.141700
8342	0.141800
8351	0.141900
8389	0.142000
8402	0.142200
8442	0.142300
8462	0.142400
8469	0.142500
8474	0.142600
8494	0.142700
8508	0.142800
8517	0.142900
8518	0.143000
8530	0.143100
8531	0.143300
8553	0.143400
8556	0.143500
8560	0.143600
8562	0.143700
8563	0.143800
8594	0.143900
8598	0.144000
8604	0.144100
8613	0.144200
8617	0.144300
8651	0.144400
8654	0.144500
8698	0.144600
8705	0.144700
8758	0.144800
8770	0.144900
8785	0.145000
8790	0.145100
8792	0.145200
8799	0.145300
8804	0.145400
8918	0.145500
8929	0.145700
8941	0.145800
8951	0.145900
8957	0.146000
8964	0.146100
8965	0.146200
9011	0.146400
9042	0.146500
9044	0.146600
9164	0.146700
9187	0.146800
9213	0.146900
9216	0.147000
9238	0.147100
9251	0.147200
9282	0.147300
9288	0.147400
9289	0.147500
9300	0.147600
9367	0.147700
9378	0.147800
9379	0.147900
9394	0.148000
9399	0.148100
9402	0.148200
9420	0.148300
9439	0.148400
9454	0.148500
9478	0.148600
9505	0.148700
9509	0.148800
9533	0.148900
9547	0.149000
9561	0.149100
9569	0.149200
9576	0.149300
9607	0.149400
9611	0.149500
9620	0.149600
9645	0.149700
9651	0.149800
9658	0.149900
9668	0.150000
9690	0.150100
9691	0.150200
9712	0.150300
9715	0.150400
9717	0.150500
9723	0.150600
9766	0.150700
9767	0.150800
9768	0.150900
9791	0.151000
9823	0.151100
9846	0.151200
9850	0.151300
9856	0.151400
9878	0.151500
9895	0.151600
9897	0.151700
9919	0.151800
9928	0.151900
9935	0.152000
9972	0.152100
9983	0.152200
9986	0.152300
9987	0.152400
9993	0.152500
10003	0.152600
10044	0.152700
10064	0.152800
10065	0.153000
10070	0.153200
10075	0.153300
10087	0.153400
10088	0.153500
10090	0.153600
10107	0.153700
10123	0.153800
10135	0.153900
10145	0.154000
10146	0.154100
10168	0.154200
10195	0.154300
10215	0.154400
10243	0.154600
10275	0.154700
10280	0.154800
10293	0.154900
10316	0.155000
10332	0.155100
10339	0.155200
10343	0.155300
10345	0.155400
10350	0.155500
10357	0.155600
10360	0.155700
10375	0.155800
10385	0.155900
10411	0.156000
10415	0.156100
10434	0.156200
10494	0.156300
10527	0.156400
10531	0.156500
10533	0.156600
10563	0.156700
10592	0.156800
10607	0.156900
10643	0.157000
10654	0.157100
10699	0.157200
10702	0.157300
10720	0.157400
10729	0.157500
10741	0.157600
10744	0.157700
10764	0.157800
10770	0.157900
10806	0.158000
10809	0.158100
10833	0.158200
10837	0.158300
10840	0.158400
10850	0.158500
10860	0.158600
10862	0.158700
10865	0.158800
10872	0.158900
10892	0.159000
10897	0.159100
10910	0.159200
10939	0.159300
10962	0.159400
10995	0.159500
11006	0.159600
11018	0.159700
11024	0.159800
11066	0.159900
11100	0.160100
11111	0.160200
11112	0.160300
11139	0.160400
11140	0.160600
11185	0.160700
11191	0.160800
11216	0.160900
11228	0.161000
11297	0.161100
11347	0.161200
11349	0.161300
11352	0.161400
11353	0.161500
11355	0.161600
11372	0.161700
11387	0.161800
11404	0.161900
11410	0.162000
11411	0.162100
11423	0.162200
11428	0.162300
11435	0.162400
11437	0.162500
11440	0.162600
11443	0.162700
11463	0.162800
11470	0.162900
11494	0.163000
11507	0.163100
11517	0.163200
11537	0.163300
11540	0.163400
11547	0.163500
11577	0.163600
11598	0.163700
11675	0.163800
11677	0.163900
11685	0.164000
11696	0.164100
11697	0.164200
11706	0.164300
11725	0.164400
11757	0.164500
11839	0.164600
11850	0.164700
11853	0.164800
11880	0.164900
11920	0.165000
11964	0.165100
11977	0.165200
11978	0.165300
12014	0.165400
12060	0.165500
12066	0.165600
12069	0.165700
12076	0.165800
12116	0.165900
12119	0.166000
12128	0.166100
12171	0.166200
12184	0.166300
12188	0.166400
12191	0.166500
12195	0.166600
12207	0.166800
12232	0.166900
12269	0.167000
12288	0.167100
12390	0.167200
12410	0.167300
12432	0.167400
12446	0.167500
12475	0.167600
12485	0.167700
12519	0.167800
12521	0.167900
12550	0.168000
12554	0.168100
12558	0.168200
12561	0.168300
12609	0.168400
12620	0.168500
12626	0.168600
12645	0.168700
12697	0.168800
12726	0.168900
12740	0.169000
12750	0.169100
12803	0.169200
12819	0.169300
12832	0.169400
12843	0.169500
12907	0.169600
12909	0.169700
12928	0.169800
12961	0.169900
12962	0.170000
12977	0.170100
13014	0.170200
13020	0.170300
13065	0.170400
13069	0.170500
13070	0.170600
13089	0.170700
13139	0.170800
13150	0.170900
13159	0.171000
13162	0.171100
13176	0.171200
13218	0.171300
13224	0.171400
13241	0.171500
13255	0.171600
13257	0.171700
13258	0.171900
13274	0.172000
