key	frequency
0	0.012800
1	0.019800
2	0.026700
3	0.031900
4	0.034900
5	0.039200
6	0.042000
7	0.044300
8	0.047500
9	0.050400
10	0.052300
11	0.054600
12	0.056800
13	0.058900
14	0.060700
15	0.062200
16	0.063700
17	0.065200
18	0.066300
19	0.068000
20	0.069200
21	0.070300
22	0.071000
23	0.072300
24	0.072900
25	0.073500
26	0.074500
27	0.075700
28	0.076300
29	0.077100
30	0.078000
31	0.079100
32	0.079800
33	0.080500
34	0.081500
35	0.082100
36	0.082900
37	0.083800
38	0.085100
39	0.085700
40	0.086400
41	0.087800
42	0.088900
43	0.089700
44	0.090700
45	0.091200
46	0.091500
47	0.091900
48	0.092700
49	0.092900
50	0.093400
51	0.094000
52	0.094200
53	0.094900
54	0.095500
55	0.096200
56	0.097000
57	0.097300
58	0.097800
59	0.098300
60	0.099100
61	0.099500
62	0.099800
63	0.100300
64	0.100400
65	0.100800
66	0.101500
67	0.101900
68	0.102100
69	0.102700
70	0.103100
71	0.103900
72	0.104600
73	0.104900
74	0.105300
75	0.105500
76	0.106100
77	0.106400
78	0.106700
79	0.106900
80	0.107500
81	0.107800
82	0.108100
83	0.108300
84	0.109200
85	0.109700
86	0.110000
87	0.110700
88	0.111200
89	0.111700
90	0.112100
91	0.112400
92	0.113000
93	0.113800
94	0.114100
95	0.114500
96	0.114700
98	0.114900
99	0.115400
100	0.115800
101	0.116200
102	0.116500
103	0.116900
104	0.117300
105	0.117800
106	0.118000
107	0.118200
108	0.118600
109	0.119100
110	0.119300
111	0.119600
112	0.120000
113	0.120300
114	0.120500
115	0.121100
116	0.121300
117	0.121700
118	0.121900
119	0.122200
121	0.122300
123	0.122700
124	0.122900
125	0.123000
126	0.123100
127	0.123400
128	0.123700
129	0.123800
130	0.124000
131	0.124100
132	0.124200
133	0.124800
134	0.125200
135	0.125700
136	0.125900
137	0.126200
138	0.126300
139	0.126600
140	0.127000
141	0.127400
142	0.127700
143	0.128100
145	0.128300
146	0.128700
147	0.128900
148	0.129200
149	0.129400
150	0.129700
151	0.129900
152	0.130000
153	0.130400
155	0.130700
156	0.130900
157	0.131300
159	0.131700
160	0.132200
162	0.132300
163	0.132600
164	0.132800
165	0.133000
166	0.133100
167	0.133300
168	0.133400
169	0.133500
170	0.133800
171	0.134100
172	0.134200
173	0.134700
174	0.135000
175	0.135100
176	0.135200
177	0.135400
178	0.135700
179	0.135800
180	0.135900
181	0.136300
182	0.136500
183	0.136800
184	0.137000
185	0.137100
186	0.137300
187	0.137500
188	0.137800
189	0.138100
190	0.138300
191	0.138700
192	0.138800
193	0.139200
194	0.139400
195	0.139600
196	0.140000
197	0.140100
198	0.140300
199	0.140700
200	0.141200
201	0.141400
203	0.141500
204	0.141700
205	0.142200
206	0.142500
208	0.142600
209	0.142800
210	0.142900
211	0.143100
212	0.143200
213	0.143600
214	0.143800
215	0.144200
216	0.144400
217	0.144700
218	0.145000
219	0.145200
220	0.145400
221	0.145600
222	0.145900
223	0.146100
224	0.146500
227	0.146700
228	0.146900
229	0.147100
230	0.147200
231	0.147400
232	0.147600
233	0.147700
234	0.147800
235	0.148000
236	0.148100
237	0.148400
238	0.148700
239	0.148800
240	0.149000
241	0.149400
242	0.149600
243	0.149700
244	0.149900
246	0.150000
249	0.150300
250	0.150400
252	0.150500
254	0.150700
255	0.150800
256	0.151000
257	0.151100
258	0.151400
259	0.151800
261	0.152000
262	0.152200
263	0.152300
264	0.152400
265	0.152500
266	0.152600
268	0.152900
269	0.153200
270	0.153500
272	0.153600
274	0.153800
276	0.153900
277	0.154000
278	0.154200
279	0.154300
280	0.154600
281	0.154900
282	0.155000
283	0.155100
285	0.155400
286	0.155700
287	0.155800
288	0.156000
289	0.156700
290	0.156900
292	0.157200
293	0.157400
295	0.157700
296	0.157800
297	0.158000
299	0.158100
300	0.158300
301	0.158500
302	0.158600
303	0.158700
305	0.158800
306	0.159000
307	0.159100
308	0.159200
309	0.159300
310	0.159400
313	0.159500
314	0.159600
315	0.159900
319	0.160200
320	0.160300
321	0.160500
323	0.160700
324	0.161000
325	0.161300
328	0.161500
329	0.161700
331	0.161800
332	0.161900
333	0.162200
335	0.162300
336	0.162500
337	0.162600
338	0.162700
339	0.162800
340	0.162900
341	0.163200
342	0.163400
343	0.163500
344	0.163600
346	0.163700
347	0.163800
348	0.163900
349	0.164000
351	0.164100
352	0.164200
354	0.164300
355	0.164600
356	0.164900
358	0.165000
360	0.165200
361	0.165400
362	0.165500
365	0.165600
366	0.165800
367	0.166100
368	0.166200
369	0.166300
370	0.166700
371	0.167000
372	0.167500
373	0.167600
374	0.167700
375	0.167800
378	0.167900
380	0.168100
384	0.168600
385	0.168800
386	0.169000
387	0.169100
388	0.169200
389	0.169300
391	0.169400
392	0.169500
394	0.169700
396	0.169800
398	0.170000
399	0.170300
401	0.170400
403	0.170500
404	0.170700
409	0.170800
411	0.171000
412	0.171100
414	0.171200
416	0.171500
419	0.171700
420	0.171800
425	0.172100
426	0.172300
427	0.172500
429	0.172600
432	0.172800
434	0.172900
435	0.173100
436	0.173200
437	0.173500
438	0.173700
441	0.173800
442	0.173900
443	0.174000
444	0.174100
447	0.174400
448	0.174500
450	0.174800
453	0.175000
455	0.175200
457	0.175400
459	0.175500
460	0.175900
461	0.176000
462	0.176300
464	0.176400
466	0.176600
467	0.176700
468	0.176800
469	0.177000
470	0.177100
471	0.177300
472	0.177500
474	0.177700
476	0.177800
477	0.178000
479	0.178100
480	0.178200
482	0.178300
484	0.178400
485	0.178500
486	0.178700
488	0.178800
489	0.178900
490	0.179100
491	0.179400
492	0.179500
494	0.179600
496	0.179800
497	0.180000
498	0.180100
499	0.180400
501	0.180500
502	0.180600
504	0.180800
508	0.181000
514	0.181200
515	0.181400
516	0.181600
517	0.181700
518	0.181800
520	0.182100
521	0.182200
522	0.182300
523	0.182400
524	0.182500
525	0.182600
526	0.182700
527	0.182900
529	0.183000
531	0.183100
535	0.183200
536	0.183300
539	0.183600
540	0.183700
542	0.183800
543	0.184000
544	0.184100
547	0.184200
549	0.184300
550	0.184500
551	0.184700
554	0.184800
556	0.184900
557	0.185100
558	0.185200
560	0.185300
564	0.185400
565	0.185600
567	0.185700
568	0.185800
570	0.185900
571	0.186000
573	0.186200
575	0.186300
576	0.186400
577	0.186500
579	0.186600
580	0.186800
581	0.187000
582	0.187200
583	0.187300
586	0.187400
588	0.187500
589	0.187700
593	0.187800
594	0.187900
599	0.188100
600	0.188200
607	0.188300
608	0.188600
609	0.188800
612	0.188900
614	0.189200
616	0.189400
619	0.189500
620	0.189600
622	0.189800
623	0.190100
624	0.190200
626	0.190300
627	0.190400
628	0.190500
629	0.190700
630	0.190800
631	0.191000
634	0.191100
637	0.191200
639	0.191300
641	0.191600
643	0.191800
645	0.191900
647	0.192100
650	0.192200
652	0.192500
653	0.192600
657	0.192700
659	0.192800
660	0.192900
661	0.193000
662	0.193100
665	0.193200
668	0.193300
669	0.193400
671	0.193500
672	0.193600
673	0.193700
675	0.193900
678	0.194000
681	0.194100
682	0.194300
683	0.194400
684	0.194700
686	0.194800
691	0.194900
692	0.195000
694	0.195100
699	0.195400
701	0.195600
702	0.195700
703	0.195800
709	0.196000
710	0.196100
711	0.196200
715	0.196500
720	0.196600
723	0.196700
724	0.196800
725	0.197000
727	0.197100
730	0.197300
732	0.197400
734	0.197500
737	0.197700
740	0.197800
743	0.197900
745	0.198000
747	0.198100
750	0.198400
752	0.198500
754	0.198600
757	0.198700
759	0.198800
760	0.198900
763	0.199200
764	0.199300
765	0.199500
767	0.199700
769	0.199800
770	0.199900
771	0.200300
772	0.200500
773	0.200600
774	0.200800
775	0.200900
777	0.201000
778	0.201200
780	0.201300
781	0.201400
782	0.201500
787	0.201600
788	0.201700
789	0.201900
798	0.202000
799	0.202200
802	0.202300
803	0.202400
806	0.202500
811	0.202700
813	0.202800
816	0.203000
821	0.203100
827	0.203200
830	0.203300
831	0.203400
832	0.203500
833	0.203600
834	0.203800
836	0.204000
837	0.204100
838	0.204200
840	0.204300
841	0.204400
842	0.204500
843	0.204600
846	0.204700
847	0.204800
848	0.204900
850	0.205100
856	0.205200
857	0.205300
858	0.205500
865	0.205600
868	0.205800
874	0.206100
876	0.206200
879	0.206400
881	0.206600
882	0.206700
885	0.206800
890	0.206900
895	0.207000
897	0.207100
898	0.207200
899	0.207400
900	0.207700
903	0.207900
905	0.208000
906	0.208100
910	0.208200
911	0.208300
912	0.208400
916	0.208500
918	0.208600
919	0.208700
922	0.208900
926	0.209000
935	0.209300
939	0.209400
943	0.209500
945	0.209700
951	0.209800
958	0.209900
959	0.210000
960	0.210100
961	0.210200
962	0.210400
965	0.210500
966	0.210600
969	0.210700
971	0.210800
973	0.211000
974	0.211100
976	0.211200
978	0.211300
980	0.211400
981	0.211600
986	0.211700
987	0.211900
989	0.212000
991	0.212100
995	0.212400
996	0.212500
998	0.212600
1000	0.212800
1001	0.212900
1002	0.213000
1004	0.213100
1006	0.213200
1007	0.213300
1011	0.213400
1013	0.213700
1014	0.213800
1017	0.213900
1020	0.214000
1022	0.214100
1023	0.214200
1024	0.214300
1025	0.214400
1027	0.214600
1032	0.214800
1034	0.214900
1039	0.215200
1040	0.215300
1041	0.215500
1049	0.215700
1051	0.215900
1053	0.216000
1054	0.216200
1055	0.216400
1057	0.216500
1061	0.216600
1063	0.216700
1064	0.216900
1072	0.217000
1074	0.217200
1075	0.217400
1076	0.217500
1077	0.217700
1087	0.217800
1088	0.218000
1089	0.218100
1092	0.218200
1099	0.218300
1102	0.218400
1104	0.218600
1107	0.218800
1108	0.219000
1109	0.219100
1111	0.219200
1112	0.219400
1117	0.219500
1121	0.219600
1122	0.219800
1124	0.219900
1125	0.220100
1127	0.220300
1130	0.220400
1131	0.220600
1132	0.220700
1135	0.220800
1137	0.221000
1138	0.221100
1140	0.221200
1145	0.221300
1146	0.221400
1147	0.221600
1151	0.221700
1153	0.221800
1155	0.221900
1159	0.222000
1162	0.222100
1163	0.222200
1164	0.222300
1165	0.222500
1166	0.222600
1169	0.222800
1171	0.223000
1177	0.223100
1179	0.223300
1181	0.223400
1182	0.223500
1193	0.223700
1194	0.223800
1197	0.224100
1199	0.224200
1200	0.224300
1202	0.224400
1204	0.224500
1205	0.224600
1208	0.224900
1209	0.225000
1210	0.225100
1212	0.225200
1214	0.225300
1216	0.225400
1222	0.225500
1223	0.225600
1226	0.225700
1228	0.225800
1229	0.225900
1232	0.226000
1237	0.226100
1239	0.226200
1241	0.226300
1242	0.226500
1243	0.226600
1245	0.227000
1247	0.227100
1249	0.227200
1250	0.227400
1252	0.227500
1269	0.227600
1272	0.227700
1274	0.227800
1276	0.228000
1281	0.228100
1282	0.228300
1284	0.228400
1286	0.228500
1287	0.228600
1288	0.228800
1289	0.228900
1290	0.229000
1294	0.229100
1295	0.229200
1303	0.229300
1308	0.229400
1311	0.229500
1313	0.229600
1316	0.229800
1317	0.230000
1319	0.230100
1327	0.230300
1328	0.230400
1335	0.230600
1338	0.230800
1340	0.231000
1348	0.231100
1352	0.231200
1354	0.231300
1355	0.231400
1359	0.231500
1362	0.231600
1363	0.231700
1368	0.231800
1375	0.231900
1376	0.232200
1377	0.232300
1382	0.232400
1384	0.232600
1385	0.232800
1387	0.232900
1388	0.233100
1389	0.233200
1390	0.233300
1395	0.233400
1397	0.233500
1398	0.233700
1405	0.233800
1411	0.233900
1412	0.234000
1427	0.234100
1428	0.234200
1433	0.234300
1434	0.234400
1442	0.234500
1447	0.234600
1449	0.234700
1459	0.234800
1460	0.234900
1467	0.235000
1469	0.235100
1472	0.235300
1474	0.235400
1480	0.235600
1489	0.235700
1490	0.235800
1491	0.235900
1494	0.236000
1499	0.236100
1501	0.236200
1506	0.236400
1507	0.236600
1509	0.236800
1513	0.236900
1516	0.237000
1517	0.237100
1518	0.237300
1525	0.237400
1527	0.237700
1529	0.237800
1530	0.237900
1531	0.238000
1535	0.238200
1539	0.238300
1540	0.238400
1543	0.238500
1548	0.238600
1549	0.238700
1558	0.238800
1562	0.238900
1564	0.239200
1567	0.239300
1569	0.239400
1577	0.239500
1578	0.239600
1580	0.239700
1590	0.239800
1593	0.239900
1596	0.240200
1597	0.240300
1600	0.240400
1604	0.240500
1606	0.240600
1607	0.240700
1613	0.240800
1615	0.240900
1618	0.241100
1619	0.241200
1620	0.241400
1621	0.241500
1623	0.241700
1633	0.241900
1636	0.242100
1637	0.242200
1638	0.242300
1639	0.242400
1641	0.242600
1644	0.242700
1645	0.242800
1652	0.242900
1655	0.243000
1660	0.243300
1663	0.243500
1664	0.243700
1677	0.243900
1684	0.244000
1689	0.244100
1691	0.244200
1694	0.244300
1695	0.244400
1700	0.244500
1710	0.244600
1717	0.244800
1721	0.244900
1722	0.245000
1733	0.245100
1734	0.245200
1736	0.245300
1739	0.245400
1742	0.245500
1753	0.245600
1755	0.245700
1758	0.245800
1761	0.245900
1762	0.246000
1764	0.246100
1765	0.246200
1767	0.246300
1768	0.246500
1781	0.246600
1782	0.246700
1789	0.246800
1796	0.246900
1797	0.247000
1806	0.247100
1812	0.247200
1813	0.247300
1814	0.247500
1815	0.247700
1820	0.247800
1823	0.247900
1824	0.248000
1825	0.248100
1827	0.248200
1829	0.248300
1831	0.248400
1834	0.248500
1835	0.248600
1839	0.248700
1840	0.248800
1854	0.248900
1862	0.249000
1877	0.249100
1878	0.249200
1881	0.249300
1883	0.249400
1887	0.249500
1894	0.249600
1897	0.249700
1901	0.249900
1905	0.250000
1908	0.250100
1917	0.250200
1918	0.250300
1928	0.250400
1939	0.250500
1940	0.250600
1941	0.250700
1942	0.250800
1943	0.251000
1946	0.251100
1958	0.251200
1961	0.251300
1968	0.251400
1971	0.251500
1976	0.251600
1981	0.251800
1982	0.251900
1984	0.252000
1994	0.252100
1999	0.252300
2002	0.252400
2008	0.252500
2009	0.252600
2020	0.252700
2024	0.252800
2025	0.252900
2026	0.253000
2030	0.253100
2034	0.253200
2035	0.253300
2036	0.253400
2038	0.253500
2042	0.253600
2051	0.253700
2055	0.253800
2066	0.253900
2067	0.254000
2075	0.254100
2076	0.254200
2082	0.254300
2088	0.254400
2090	0.254500
2093	0.254600
2095	0.254700
2096	0.254800
2097	0.254900
2098	0.255000
2109	0.255100
2110	0.255200
2111	0.255300
2114	0.255400
2121	0.255500
2123	0.255600
2134	0.255800
2142	0.255900
2143	0.256000
2145	0.256100
2161	0.256200
2164	0.256300
2167	0.256400
2168	0.256500
2170	0.256600
2171	0.256700
2176	0.256800
2178	0.256900
2180	0.257000
2183	0.257100
2189	0.257300
2193	0.257400
2197	0.257500
2208	0.257600
2214	0.257700
2218	0.257800
2219	0.257900
2220	0.258000
2222	0.258200
2223	0.258300
2225	0.258400
2228	0.258700
2236	0.258800
2244	0.258900
2246	0.259000
2247	0.259100
2249	0.259200
2255	0.259300
2265	0.259400
2267	0.259500
2268	0.259600
2270	0.259700
2273	0.259900
2274	0.260000
2275	0.260100
2276	0.260400
2279	0.260500
2287	0.260600
2289	0.260700
2292	0.260800
2299	0.260900
2300	0.261000
2301	0.261100
2302	0.261200
2308	0.261300
2310	0.261400
2314	0.261600
2318	0.261700
2327	0.261800
2329	0.261900
2330	0.262000
2334	0.262100
2336	0.262200
2337	0.262300
2341	0.262400
2345	0.262500
2347	0.262600
2348	0.262700
2350	0.262900
2355	0.263000
2357	0.263200
2358	0.263300
2360	0.263400
2363	0.263500
2364	0.263600
2367	0.263700
2372	0.263800
2379	0.263900
2384	0.264000
2391	0.264200
2394	0.264300
2396	0.264400
2399	0.264500
2402	0.264600
2405	0.264700
2412	0.264800
2425	0.264900
2427	0.265000
2428	0.265100
2441	0.265200
2449	0.265400
2455	0.265600
2458	0.265700
2460	0.265800
2466	0.265900
2467	0.266000
2477	0.266100
2486	0.266200
2500	0.266300
2501	0.266400
2509	0.266500
2516	0.266800
2537	0.266900
2538	0.267000
2552	0.267100
2554	0.267200
2555	0.267300
2556	0.267400
2559	0.267500
2569	0.267600
2572	0.267700
2573	0.267800
2575	0.268000
2580	0.268100
2583	0.268300
2587	0.268400
2589	0.268500
2593	0.268600
2595	0.268700
2600	0.268800
2614	0.268900
2618	0.269000
2624	0.269100
2625	0.269200
2630	0.269300
2638	0.269400
2643	0.269500
2648	0.269600
2659	0.269700
2662	0.269800
2671	0.269900
2672	0.270000
2676	0.270100
2677	0.270200
2680	0.270400
2684	0.270500
2685	0.270600
2691	0.270700
2717	0.270800
2718	0.270900
2725	0.271000
2735	0.271100
2740	0.271200
2750	0.271300
2755	0.271400
2757	0.271500
2763	0.271600
2765	0.271700
2767	0.271800
2771	0.271900
2774	0.272100
2785	0.272300
2792	0.272400
2794	0.272500
2799	0.272600
2800	0.272700
2804	0.272800
2808	0.273000
2820	0.273100
2822	0.273200
2828	0.273300
2831	0.273400
2834	0.273500
2853	0.273600
2855	0.273700
2863	0.273800
2867	0.273900
2876	0.274000
2878	0.274100
2879	0.274200
2881	0.274300
2885	0.274400
2891	0.274500
2894	0.274600
2896	0.274700
2907	0.274800
2914	0.275000
2915	0.275100
2923	0.275300
2927	0.275400
2928	0.275500
2929	0.275600
2931	0.275700
2938	0.275800
2939	0.275900
2944	0.276000
2947	0.276100
2963	0.276200
2966	0.276300
2971	0.276400
2974	0.276600
2982	0.276800
2998	0.276900
3000	0.277000
3011	0.277100
3018	0.277200
3021	0.277300
3023	0.277400
3025	0.277500
3027	0.277800
3034	0.278000
3036	0.278100
3050	0.278300
3053	0.278400
3054	0.278500
3060	0.278600
3061	0.278800
3067	0.278900
3081	0.279000
3082	0.279300
3084	0.279400
3097	0.279500
3099	0.279600
3103	0.279700
3108	0.279900
3109	0.280000
3116	0.280100
3118	0.280200
3124	0.280300
3131	0.280400
3134	0.280500
3137	0.280700
3151	0.280800
3163	0.280900
3170	0.281000
3176	0.281100
3179	0.281200
3183	0.281300
3188	0.281500
3191	0.281600
3202	0.281700
3208	0.281800
3218	0.281900
3227	0.282000
3229	0.282200
3230	0.282300
3238	0.282400
3245	0.282500
3247	0.282600
3250	0.282700
3251	0.282800
3252	0.282900
3254	0.283000
3258	0.283100
3259	0.283200
3274	0.283300
3281	0.283400
3282	0.283500
3290	0.283600
3291	0.283700
3296	0.283800
3297	0.284000
3305	0.284100
3313	0.284200
3320	0.284300
3321	0.284400
3324	0.284500
3334	0.284600
3341	0.284700
3344	0.284800
3345	0.284900
3350	0.285000
3353	0.285200
3356	0.285300
3358	0.285400
3362	0.285500
3365	0.285600
3368	0.285700
3369	0.285800
3370	0.285900
3373	0.286000
3388	0.286100
3399	0.286200
3402	0.286300
3405	0.286400
3412	0.286500
3419	0.286600
3430	0.286700
3438	0.286800
3442	0.286900
3448	0.287000
3457	0.287200
3462	0.287300
3471	0.287400
3482	0.287500
3484	0.287600
3486	0.287700
3492	0.287800
3502	0.287900
3503	0.288000
3505	0.288100
3509	0.288200
3512	0.288300
3516	0.288400
3522	0.288600
3526	0.288700
3533	0.288800
3534	0.288900
3535	0.289000
3548	0.289100
3554	0.289200
3555	0.289300
3562	0.289400
3564	0.289500
3567	0.289600
3578	0.289800
3586	0.289900
3590	0.290000
3605	0.290100
3619	0.290200
3621	0.290300
3632	0.290400
3647	0.290500
3653	0.290600
3654	0.290700
3656	0.290800
3659	0.290900
3665	0.291000
3673	0.291100
3674	0.291300
3676	0.291400
3680	0.291500
3685	0.291600
3689	0.291700
3692	0.291900
3693	0.292000
3699	0.292100
3701	0.292200
3709	0.292300
3714	0.292400
3716	0.292500
3718	0.292600
3719	0.292700
3720	0.292800
3727	0.292900
3732	0.293000
3734	0.293100
3742	0.293200
3752	0.293300
3762	0.293400
3767	0.293500
3781	0.293600
3786	0.293900
3791	0.294000
3804	0.294100
3807	0.294200
3824	0.294300
3829	0.294400
3831	0.294500
3837	0.294600
3839	0.294700
3840	0.294800
3842	0.294900
3845	0.295000
3857	0.295100
3860	0.295200
3867	0.295300
3868	0.295400
3871	0.295500
3874	0.295600
3877	0.295800
3878	0.295900
3882	0.296000
3901	0.296100
3910	0.296200
3914	0.296300
3917	0.296400
3923	0.296500
3924	0.296600
3925	0.296700
3941	0.296800
3948	0.296900
3963	0.297000
3976	0.297100
3990	0.297200
3995	0.297300
4000	0.297400
4004	0.297500
4008	0.297600
4011	0.297700
4028	0.297800
4033	0.297900
4034	0.298000
4038	0.298100
4055	0.298200
4069	0.298300
4073	0.298400
4078	0.298500
4084	0.298600
4097	0.298700
4102	0.298800
4109	0.298900
4111	0.299000
4115	0.299100
4126	0.299200
4128	0.299400
4136	0.299500
4137	0.299600
4144	0.299700
4197	0.299800
4214	0.299900
4219	0.300000
4227	0.300100
4230	0.300200
4233	0.300400
4234	0.300500
4236	0.300600
4247	0.300800
4248	0.300900
4255	0.301000
4262	0.301100
4264	0.301200
4265	0.301300
4271	0.301400
4272	0.301500
4275	0.301600
4279	0.301800
4280	0.301900
4288	0.302000
4290	0.302100
4293	0.302200
4301	0.302300
4302	0.302400
4308	0.302500
4309	0.302600
4310	0.302800
4314	0.302900
4321	0.303000
4327	0.303200
4353	0.303300
4356	0.303400
4362	0.303600
4386	0.303700
4396	0.303800
4409	0.303900
4412	0.304000
4421	0.304100
4422	0.304200
4424	0.304300
4436	0.304400
4439	0.304500
4441	0.304600
4442	0.304700
4446	0.304800
4456	0.304900
4461	0.305000
4468	0.305100
4476	0.305200
4479	0.305400
4482	0.305500
4485	0.305600
4507	0.305700
4509	0.305800
4510	0.305900
4513	0.306000
4518	0.306100
4519	0.306300
4521	0.306400
4523	0.306500
4528	0.306600
4547	0.306800
4555	0.307000
4556	0.307100
4557	0.307200
4562	0.307300
4574	0.307400
4580	0.307500
4582	0.307600
4585	0.307700
4586	0.307800
4587	0.307900
4595	0.308100
4597	0.308200
4600	0.308300
4604	0.308400
4621	0.308500
4654	0.308600
4661	0.308700
4666	0.308800
4673	0.308900
4677	0.309000
4691	0.309100
4693	0.309200
4696	0.309300
4728	0.309500
4730	0.309600
4743	0.309700
4744	0.309900
4756	0.310000
4772	0.310100
4779	0.310200
4780	0.310400
4782	0.310500
4783	0.310600
4800	0.310700
4818	0.310800
4819	0.310900
4823	0.311000
4824	0.311100
4827	0.311200
4828	0.311300
4829	0.311400
4833	0.311500
4837	0.311600
4840	0.311700
