key	frequency
0	0.196078
1	0.315704
2	0.402982
3	0.462415
4	0.505152
5	0.539020
6	0.565388
7	0.587192
8	0.606213
9	0.621538
10	0.635864
11	0.647667
12	0.659080
13	0.668123
14	0.677340
15	0.685448
16	0.692861
17	0.699078
18	0.705665
19	0.711469
20	0.717078
21	0.722490
22	0.727599
23	0.731773
24	0.736381
25	0.740642
26	0.744315
27	0.747728
28	0.751337
29	0.754554
30	0.757619
31	0.760402
32	0.763228
33	0.765858
34	0.768488
35	0.770532
36	0.773206
37	0.775575
38	0.778401
39	0.780336
40	0.782444
41	0.784705
42	0.786988
43	0.788661
44	0.790661
45	0.792226
46	0.793879
47	0.795857
48	0.797444
49	0.799161
50	0.800791
51	0.802183
52	0.803443
53	0.805117
54	0.806704
55	0.808095
56	0.809595
57	0.810900
58	0.811921
59	0.813160
60	0.814443
61	0.815551
62	0.817008
63	0.818225
64	0.819138
65	0.820203
66	0.821030
67	0.821834
68	0.822856
69	0.823899
70	0.824747
71	0.825595
72	0.826638
73	0.827529
74	0.828790
75	0.829790
76	0.830812
77	0.831703
78	0.832768
79	0.833507
80	0.834507
81	0.835159
82	0.835833
83	0.836485
84	0.837072
85	0.837942
86	0.838485
87	0.839181
88	0.840094
89	0.840898
90	0.841572
91	0.842203
92	0.842898
93	0.843659
94	0.844311
95	0.844702
96	0.845181
97	0.845833
98	0.846528
99	0.847115
100	0.847485
101	0.848289
102	0.849050
103	0.849724
104	0.850246
105	0.850854
106	0.851528
107	0.852115
108	0.852898
109	0.853398
110	0.853593
111	0.854245
112	0.854767
113	0.855398
114	0.855854
115	0.856419
116	0.857071
117	0.857267
118	0.857767
119	0.858115
120	0.858637
121	0.859158
122	0.859637
123	0.860115
124	0.860723
125	0.861202
126	0.861463
127	0.861854
128	0.862289
129	0.862810
130	0.863267
131	0.863767
132	0.864136
133	0.864723
134	0.865223
135	0.865528
136	0.865962
137	0.866419
138	0.866875
139	0.867354
140	0.867680
141	0.867984
142	0.868354
143	0.868810
144	0.869136
145	0.869223
146	0.869571
147	0.869897
148	0.870158
149	0.870419
150	0.870875
151	0.871353
152	0.871636
153	0.871897
154	0.872179
155	0.872701
156	0.873136
157	0.873397
158	0.873766
159	0.873984
160	0.874223
161	0.874419
162	0.874745
163	0.875027
164	0.875375
165	0.875679
166	0.875853
167	0.876071
168	0.876266
169	0.876701
170	0.877071
171	0.877244
172	0.877484
173	0.877766
174	0.878027
175	0.878505
176	0.878701
177	0.878853
178	0.879092
179	0.879527
180	0.879788
181	0.879983
182	0.880244
183	0.880505
184	0.880701
185	0.880918
186	0.881201
187	0.881505
188	0.881679
189	0.881853
190	0.881918
191	0.882136
192	0.882266
193	0.882527
194	0.882875
195	0.883005
196	0.883222
197	0.883396
198	0.883744
199	0.883940
200	0.884266
201	0.884614
202	0.884853
203	0.885201
204	0.885462
205	0.885744
206	0.885983
207	0.886179
208	0.886396
209	0.886527
210	0.886679
211	0.886896
212	0.887135
213	0.887309
214	0.887505
215	0.887657
216	0.887961
217	0.888201
218	0.888396
219	0.888505
220	0.888766
221	0.889048
222	0.889287
223	0.889353
224	0.889461
225	0.889570
226	0.889831
227	0.889983
228	0.890266
229	0.890440
230	0.890744
231	0.890940
232	0.891157
233	0.891309
234	0.891418
235	0.891570
236	0.891787
237	0.891918
238	0.891939
239	0.892092
240	0.892222
241	0.892439
242	0.892613
243	0.892831
244	0.893005
245	0.893157
246	0.893309
247	0.893526
248	0.893679
249	0.893722
250	0.893939
251	0.894179
252	0.894396
253	0.894570
254	0.894722
255	0.894831
256	0.895005
257	0.895222
258	0.895374
259	0.895548
260	0.895678
261	0.895939
262	0.896048
263	0.896200
264	0.896418
265	0.896591
266	0.896744
267	0.896918
268	0.897091
269	0.897157
270	0.897265
271	0.897396
272	0.897504
273	0.897700
274	0.897787
275	0.897896
276	0.898070
277	0.898200
278	0.898352
279	0.898526
280	0.898591
281	0.898722
282	0.898874
283	0.899026
284	0.899157
285	0.899287
286	0.899374
287	0.899504
288	0.899700
289	0.899896
290	0.900070
291	0.900113
292	0.900200
293	0.900309
294	0.900439
295	0.900570
296	0.900678
297	0.900765
298	0.900852
299	0.900939
300	0.901091
301	0.901222
302	0.901287
303	0.901504
304	0.901678
305	0.901743
306	0.901874
307	0.902004
308	0.902178
309	0.902374
310	0.902483
311	0.902613
312	0.902722
313	0.902874
314	0.903069
315	0.903156
316	0.903243
317	0.903330
318	0.903439
319	0.903569
320	0.903765
321	0.903852
322	0.903961
323	0.904091
324	0.904178
325	0.904287
326	0.904417
327	0.904482
328	0.904526
329	0.904656
330	0.904722
331	0.904852
332	0.904982
333	0.905156
334	0.905308
335	0.905482
336	0.905548
337	0.905678
338	0.905765
339	0.905917
340	0.906026
341	0.906091
342	0.906135
343	0.906308
344	0.906374
345	0.906504
346	0.906678
347	0.906743
348	0.906830
349	0.906917
350	0.907134
351	0.907178
352	0.907221
353	0.907308
354	0.907395
355	0.907569
356	0.907656
357	0.907721
358	0.907808
359	0.907917
360	0.908026
361	0.908091
362	0.908287
363	0.908374
364	0.908547
365	0.908700
366	0.908743
367	0.908874
368	0.908960
369	0.909069
370	0.909113
371	0.909243
372	0.909374
373	0.909656
374	0.909765
375	0.909830
376	0.909982
377	0.910134
378	0.910178
379	0.910200
380	0.910287
381	0.910373
382	0.910439
383	0.910526
384	0.910613
385	0.910765
386	0.910939
387	0.911047
388	0.911156
389	0.911221
390	0.911373
391	0.911417
392	0.911482
393	0.911547
394	0.911591
395	0.911678
396	0.911743
397	0.911765
398	0.911852
399	0.911960
400	0.912026
401	0.912091
402	0.912178
403	0.912286
404	0.912373
405	0.912439
406	0.912526
407	0.912634
408	0.912678
409	0.912830
410	0.913004
411	0.913134
412	0.913265
413	0.913352
414	0.913439
415	0.913547
416	0.913591
418	0.913634
419	0.913678
420	0.913743
421	0.913786
422	0.913852
423	0.913917
424	0.914025
425	0.914091
426	0.914178
427	0.914308
428	0.914373
429	0.914439
430	0.914569
431	0.914612
432	0.914699
433	0.914765
434	0.914852
435	0.914917
436	0.915004
437	0.915047
438	0.915134
439	0.915221
440	0.915352
441	0.915373
442	0.915460
443	0.915482
444	0.915591
445	0.915721
446	0.915786
447	0.915895
448	0.915938
450	0.916069
451	0.916134
452	0.916286
453	0.916351
454	0.916395
455	0.916482
457	0.916547
458	0.916591
459	0.916656
460	0.916699
461	0.916743
462	0.916786
463	0.916873
464	0.916938
465	0.916960
466	0.916982
467	0.917112
469	0.917199
470	0.917286
471	0.917308
472	0.917395
473	0.917438
474	0.917525
475	0.917569
476	0.917634
478	0.917743
479	0.917786
480	0.917830
481	0.917938
482	0.917982
483	0.918004
484	0.918069
485	0.918134
486	0.918177
487	0.918330
488	0.918395
489	0.918525
490	0.918634
491	0.918656
492	0.918764
493	0.918873
494	0.918938
495	0.918960
496	0.919004
497	0.919047
498	0.919069
499	0.919134
500	0.919156
501	0.919199
502	0.919221
503	0.919264
504	0.919373
505	0.919417
506	0.919525
507	0.919547
508	0.919569
509	0.919656
510	0.919677
511	0.919721
512	0.919830
513	0.919873
514	0.919960
516	0.920047
517	0.920156
518	0.920177
519	0.920286
520	0.920351
522	0.920460
524	0.920482
525	0.920569
526	0.920590
527	0.920612
528	0.920721
529	0.920764
530	0.920808
531	0.920873
532	0.920938
535	0.920960
536	0.920982
537	0.921047
538	0.921069
540	0.921134
541	0.921221
542	0.921330
543	0.921438
544	0.921460
545	0.921547
546	0.921569
547	0.921590
549	0.921612
550	0.921656
551	0.921677
552	0.921743
553	0.921764
554	0.921808
556	0.921829
557	0.921873
558	0.921982
559	0.922069
560	0.922112
561	0.922134
562	0.922177
563	0.922221
564	0.922264
565	0.922286
566	0.922373
567	0.922438
568	0.922482
569	0.922547
570	0.922656
571	0.922742
572	0.922829
573	0.922873
574	0.922938
575	0.923025
576	0.923047
577	0.923069
578	0.923221
579	0.923308
580	0.923416
581	0.923460
583	0.923482
584	0.923525
585	0.923547
586	0.923590
587	0.923655
588	0.923677
589	0.923699
590	0.923742
591	0.923808
592	0.923873
593	0.923960
594	0.924003
595	0.924155
596	0.924199
597	0.924264
598	0.924329
599	0.924373
600	0.924395
601	0.924460
602	0.924503
603	0.924547
604	0.924612
605	0.924677
606	0.924721
607	0.924764
608	0.924851
609	0.924873
610	0.924960
611	0.924982
612	0.925003
613	0.925068
614	0.925112
615	0.925177
616	0.925199
617	0.925221
618	0.925286
620	0.925351
621	0.925416
622	0.925438
623	0.925482
624	0.925503
625	0.925590
626	0.925612
627	0.925634
628	0.925677
629	0.925721
630	0.925764
631	0.925786
632	0.925829
634	0.925851
637	0.925895
638	0.925981
639	0.926003
640	0.926025
641	0.926090
642	0.926112
643	0.926155
644	0.926177
645	0.926242
646	0.926286
648	0.926395
649	0.926503
651	0.926525
652	0.926568
654	0.926612
656	0.926677
657	0.926721
658	0.926764
661	0.926786
662	0.926829
663	0.926873
664	0.926916
665	0.927047
666	0.927068
668	0.927155
670	0.927221
671	0.927264
672	0.927329
674	0.927394
675	0.927438
676	0.927503
677	0.927590
678	0.927634
679	0.927699
680	0.927721
682	0.927829
683	0.927894
684	0.927938
685	0.927981
686	0.928068
687	0.928112
688	0.928177
689	0.928199
690	0.928242
691	0.928264
692	0.928351
693	0.928394
694	0.928503
695	0.928568
696	0.928612
697	0.928655
698	0.928720
699	0.928764
701	0.928786
702	0.928807
703	0.928916
704	0.928938
705	0.928960
706	0.929003
707	0.929025
708	0.929090
709	0.929112
710	0.929199
711	0.929286
712	0.929351
713	0.929373
714	0.929394
715	0.929481
716	0.929503
717	0.929612
718	0.929655
719	0.929699
720	0.929720
722	0.929807
723	0.929873
724	0.929981
726	0.930003
728	0.930068
729	0.930112
730	0.930133
731	0.930155
732	0.930199
733	0.930242
734	0.930329
735	0.930351
736	0.930373
737	0.930416
738	0.930503
739	0.930590
740	0.930633
741	0.930655
742	0.930742
744	0.930786
745	0.930807
748	0.930829
749	0.930873
750	0.930894
751	0.930960
752	0.931003
753	0.931090
754	0.931133
755	0.931155
756	0.931199
757	0.931220
759	0.931264
760	0.931373
763	0.931438
764	0.931481
765	0.931503
766	0.931568
767	0.931655
768	0.931677
769	0.931720
770	0.931764
772	0.931829
773	0.931851
775	0.931959
776	0.931981
777	0.932003
778	0.932025
779	0.932046
780	0.932112
782	0.932133
784	0.932155
785	0.932177
786	0.932199
787	0.932242
788	0.932373
789	0.932416
791	0.932438
792	0.932459
793	0.932503
794	0.932546
798	0.932633
799	0.932677
802	0.932786
804	0.932851
805	0.932872
806	0.932938
807	0.932959
808	0.933003
809	0.933068
810	0.933155
812	0.933220
813	0.933286
814	0.933307
816	0.933329
817	0.933416
819	0.933459
820	0.933503
823	0.933546
824	0.933590
826	0.933612
827	0.933677
828	0.933742
831	0.933785
834	0.933894
835	0.933959
836	0.934025
837	0.934068
838	0.934112
839	0.934155
840	0.934199
841	0.934242
842	0.934264
843	0.934307
844	0.934351
845	0.934416
846	0.934438
847	0.934503
848	0.934546
850	0.934612
851	0.934633
852	0.934677
853	0.934742
854	0.934764
855	0.934785
856	0.934872
857	0.934916
859	0.934938
860	0.935003
861	0.935046
862	0.935090
863	0.935155
864	0.935177
865	0.935264
866	0.935307
867	0.935351
869	0.935372
870	0.935416
871	0.935459
872	0.935481
873	0.935525
876	0.935568
878	0.935590
879	0.935677
880	0.935764
881	0.935785
882	0.935829
884	0.935851
885	0.935872
888	0.935894
889	0.935938
890	0.935959
891	0.935981
892	0.936003
894	0.936068
895	0.936090
898	0.936155
900	0.936177
902	0.936198
903	0.936220
905	0.936264
906	0.936285
907	0.936329
911	0.936372
912	0.936394
913	0.936438
915	0.936459
916	0.936503
918	0.936524
919	0.936568
923	0.936655
924	0.936677
925	0.936698
926	0.936720
927	0.936764
928	0.936785
930	0.936807
932	0.936851
933	0.936872
934	0.936894
935	0.936916
936	0.936938
937	0.936959
938	0.936981
940	0.937090
941	0.937111
942	0.937155
943	0.937198
944	0.937242
946	0.937285
948	0.937329
949	0.937351
950	0.937394
951	0.937416
952	0.937503
954	0.937568
956	0.937590
957	0.937611
958	0.937633
959	0.937655
960	0.937698
962	0.937742
963	0.937785
967	0.937851
968	0.937872
969	0.937894
971	0.937937
972	0.937959
973	0.937981
974	0.938003
975	0.938046
977	0.938090
978	0.938133
980	0.938177
982	0.938198
983	0.938220
985	0.938264
986	0.938285
988	0.938329
991	0.938351
993	0.938372
994	0.938394
996	0.938416
997	0.938437
998	0.938481
999	0.938503
1000	0.938524
1002	0.938590
1003	0.938611
1005	0.938633
1006	0.938677
1008	0.938720
1009	0.938742
1010	0.938807
1012	0.938850
1013	0.938894
1014	0.938959
1015	0.939003
1017	0.939046
1018	0.939090
1019	0.939111
1020	0.939177
1021	0.939198
1022	0.939264
1023	0.939285
1026	0.939307
1027	0.939329
1028	0.939372
1032	0.939394
1033	0.939416
1034	0.939459
1035	0.939524
1036	0.939568
1037	0.939590
1038	0.939633
1039	0.939655
1040	0.939677
1041	0.939763
1042	0.939829
1043	0.939850
1045	0.939872
1047	0.939916
1049	0.939937
1050	0.939959
1051	0.939981
1052	0.940068
1053	0.940090
1054	0.940133
1056	0.940155
1059	0.940242
1060	0.940307
1061	0.940329
1062	0.940416
1063	0.940437
1064	0.940503
1065	0.940524
1068	0.940568
1069	0.940590
1072	0.940633
1076	0.940655
1077	0.940676
1078	0.940720
1079	0.940742
1080	0.940763
1081	0.940785
1082	0.940850
1084	0.940872
1086	0.940894
1087	0.940916
1089	0.940959
1091	0.941046
1092	0.941090
1094	0.941133
1095	0.941155
1096	0.941176
1099	0.941220
1101	0.941263
1104	0.941307
1105	0.941329
1107	0.941394
1108	0.941416
1109	0.941459
1111	0.941503
1112	0.941568
1114	0.941611
1115	0.941633
1116	0.941655
1119	0.941676
1120	0.941720
1121	0.941742
1123	0.941785
1127	0.941829
1130	0.941850
1131	0.941872
1133	0.941894
1134	0.941937
1135	0.941981
1138	0.942003
1139	0.942024
1140	0.942068
1142	0.942089
1143	0.942111
1146	0.942133
1148	0.942155
1149	0.942220
1150	0.942263
1152	0.942307
1153	0.942329
1155	0.942350
1157	0.942394
1158	0.942416
1159	0.942437
1160	0.942459
1162	0.942481
1166	0.942502
1167	0.942546
1168	0.942568
1169	0.942589
1170	0.942633
1171	0.942676
1173	0.942720
1174	0.942742
1176	0.942807
1182	0.942829
1183	0.942850
1185	0.942916
1188	0.942937
1192	0.942959
1193	0.942981
1196	0.943002
1197	0.943024
1198	0.943068
1200	0.943089
1201	0.943133
1202	0.943176
1205	0.943198
1209	0.943220
1210	0.943242
1214	0.943263
1215	0.943307
1216	0.943329
1218	0.943394
1220	0.943416
1221	0.943459
1222	0.943524
1223	0.943568
1224	0.943589
1227	0.943633
1228	0.943655
1230	0.943676
1232	0.943720
1233	0.943763
1236	0.943807
1238	0.943829
1239	0.943850
1240	0.943937
1241	0.943981
1242	0.944002
1243	0.944024
1245	0.944046
1246	0.944068
1248	0.944133
1249	0.944176
1250	0.944242
1253	0.944263
1256	0.944285
1258	0.944307
1259	0.944329
1260	0.944350
1261	0.944372
1262	0.944415
1263	0.944481
1265	0.944568
1266	0.944611
1273	0.944633
1274	0.944676
1275	0.944698
1276	0.944720
1277	0.944763
1280	0.944785
1281	0.944807
1282	0.944850
1284	0.944872
1285	0.944894
1286	0.944915
1287	0.944937
1289	0.944959
1290	0.944981
1292	0.945002
1294	0.945046
1302	0.945089
1303	0.945111
1306	0.945133
1307	0.945155
1308	0.945176
1309	0.945242
1311	0.945263
1313	0.945285
1314	0.945307
1315	0.945328
1317	0.945350
1318	0.945372
1319	0.945394
1320	0.945437
1321	0.945481
1323	0.945546
1324	0.945568
1326	0.945589
1327	0.945633
1328	0.945655
1329	0.945676
1331	0.945698
1333	0.945763
1335	0.945785
1336	0.945807
1340	0.945828
1343	0.945894
1344	0.945915
1345	0.945937
1347	0.945959
1349	0.945981
1354	0.946002
1357	0.946024
1358	0.946046
1359	0.946068
1361	0.946089
1363	0.946111
1364	0.946176
1365	0.946198
1366	0.946220
1367	0.946241
1371	0.946263
1372	0.946285
1374	0.946307
1375	0.946328
1377	0.946350
1378	0.946372
1380	0.946415
1382	0.946459
1385	0.946481
1389	0.946502
1391	0.946524
1393	0.946546
1395	0.946568
1399	0.946611
1400	0.946676
1402	0.946698
1406	0.946720
1410	0.946741
1412	0.946785
1413	0.946807
1414	0.946850
1417	0.946915
1419	0.946959
1420	0.946981
1421	0.947002
1424	0.947046
1426	0.947068
1428	0.947089
1430	0.947111
1431	0.947133
1432	0.947176
1433	0.947220
1436	0.947241
1440	0.947285
1442	0.947307
1448	0.947328
1451	0.947350
1453	0.947394
1456	0.947437
1457	0.947524
1458	0.947546
1459	0.947611
1461	0.947633
1462	0.947654
1463	0.947698
1465	0.947720
1466	0.947763
1471	0.947807
1473	0.947828
1475	0.947850
1476	0.947872
1478	0.947894
1482	0.947937
1483	0.947959
1487	0.947981
1488	0.948002
1489	0.948024
1494	0.948046
1496	0.948089
1500	0.948111
1501	0.948133
1505	0.948176
1511	0.948198
1513	0.948241
1514	0.948285
1515	0.948307
1520	0.948350
1522	0.948372
1524	0.948394
1525	0.948415
1526	0.948459
1527	0.948502
1529	0.948524
1530	0.948546
1531	0.948567
1535	0.948589
1538	0.948611
1539	0.948633
1542	0.948654
1544	0.948676
1545	0.948698
1546	0.948720
1549	0.948763
1550	0.948785
1551	0.948807
1553	0.948828
1554	0.948850
1555	0.948872
1560	0.948915
1562	0.948937
1563	0.948959
1564	0.948980
1568	0.949002
1569	0.949024
1570	0.949046
1572	0.949067
1573	0.949089
1576	0.949111
1577	0.949133
1580	0.949154
1582	0.949176
1583	0.949198
1584	0.949241
1587	0.949285
1591	0.949307
1593	0.949328
1595	0.949394
1596	0.949415
1598	0.949437
1600	0.949502
1601	0.949546
1608	0.949589
1610	0.949633
1612	0.949676
1613	0.949741
1614	0.949763
1615	0.949785
1616	0.949807
1620	0.949828
1622	0.949893
1624	0.949915
1626	0.949959
1630	0.949980
1633	0.950002
1634	0.950046
1639	0.950067
1644	0.950089
1645	0.950111
1646	0.950133
1649	0.950176
1652	0.950220
1654	0.950263
1656	0.950285
1657	0.950307
1658	0.950328
1660	0.950350
1662	0.950393
1663	0.950415
1667	0.950459
1669	0.950480
1672	0.950546
1678	0.950567
1683	0.950589
1686	0.950611
1688	0.950654
1692	0.950698
1696	0.950720
1697	0.950785
1699	0.950806
1702	0.950828
1705	0.950850
1710	0.950872
1712	0.950893
1718	0.950915
1719	0.950937
1721	0.950959
1723	0.950980
1724	0.951002
1725	0.951046
1727	0.951089
1730	0.951111
1732	0.951154
1738	0.951176
1742	0.951220
1749	0.951241
1756	0.951285
1760	0.951306
1761	0.951328
1763	0.951350
1768	0.951393
1769	0.951415
1772	0.951437
1773	0.951459
1777	0.951502
1779	0.951524
1780	0.951589
1782	0.951611
1787	0.951654
1790	0.951676
1792	0.951698
1796	0.951719
1797	0.951741
1799	0.951763
1802	0.951785
1807	0.951828
1811	0.951872
1812	0.951893
1813	0.951915
1814	0.951937
1815	0.951959
1818	0.952002
1824	0.952046
1826	0.952067
1827	0.952089
1829	0.952111
1833	0.952133
1836	0.952154
1837	0.952198
1838	0.952241
1840	0.952285
1847	0.952306
1850	0.952328
1851	0.952350
1852	0.952372
1859	0.952393
1862	0.952437
1866	0.952459
1867	0.952480
1868	0.952502
1870	0.952524
1871	0.952546
1873	0.952567
1874	0.952589
1876	0.952611
1879	0.952632
1881	0.952654
1882	0.952676
1885	0.952698
1888	0.952719
1890	0.952741
1891	0.952763
1893	0.952785
1897	0.952806
1901	0.952828
1905	0.952893
1912	0.952915
1913	0.952937
1914	0.952959
1917	0.952980
1925	0.953002
1927	0.953024
1932	0.953046
1936	0.953067
1944	0.953089
1945	0.953132
1951	0.953154
1952	0.953176
1954	0.953198
1957	0.953219
1962	0.953241
1971	0.953263
1974	0.953285
1985	0.953306
1992	0.953328
2000	0.953372
2001	0.953393
2009	0.953415
2012	0.953437
2016	0.953459
2017	0.953480
2019	0.953502
2021	0.953524
2023	0.953545
2024	0.953567
2027	0.953611
2032	0.953632
2034	0.953654
2036	0.953676
2038	0.953698
2043	0.953719
2045	0.953741
2046	0.953785
2048	0.953806
2050	0.953872
2051	0.953893
2053	0.953915
2057	0.953959
2062	0.953980
2069	0.954002
2073	0.954024
2074	0.954067
2076	0.954089
2077	0.954111
2078	0.954132
2079	0.954176
2084	0.954198
2088	0.954219
2094	0.954241
2095	0.954263
2103	0.954306
2104	0.954328
2115	0.954350
2117	0.954372
2119	0.954393
2120	0.954415
2121	0.954437
2123	0.954459
2124	0.954480
2125	0.954502
2126	0.954524
2128	0.954545
2130	0.954567
2133	0.954589
2134	0.954632
2136	0.954654
2137	0.954676
2138	0.954698
2147	0.954719
2152	0.954741
2154	0.954763
2155	0.954785
2156	0.954806
2158	0.954828
2159	0.954850
2161	0.954872
2163	0.954893
2164	0.954915
2169	0.954937
2170	0.954958
2174	0.954980
2183	0.955002
2185	0.955024
2189	0.955045
2191	0.955067
2193	0.955111
2195	0.955132
2196	0.955154
2197	0.955176
2204	0.955198
2205	0.955219
2207	0.955241
2212	0.955263
2214	0.955285
2221	0.955328
2223	0.955350
2227	0.955372
2228	0.955393
2231	0.955415
2240	0.955437
2241	0.955458
2245	0.955480
2248	0.955502
2249	0.955524
2253	0.955545
2258	0.955567
2267	0.955589
2269	0.955611
2274	0.955632
2276	0.955654
2284	0.955676
2286	0.955698
2290	0.955719
2292	0.955741
2297	0.955785
2299	0.955828
2300	0.955850
2303	0.955871
2304	0.955893
2313	0.955937
2314	0.955958
2316	0.955980
2321	0.956002
2324	0.956024
2327	0.956045
2329	0.956067
2331	0.956089
2332	0.956111
2334	0.956132
2339	0.956154
2345	0.956176
2346	0.956198
2352	0.956219
2360	0.956241
2361	0.956263
2366	0.956306
2370	0.956328
2373	0.956371
2374	0.956415
2376	0.956437
2380	0.956458
2383	0.956502
2386	0.956524
2388	0.956545
2391	0.956567
2393	0.956611
2394	0.956632
2408	0.956676
