key	frequency
0	0.002183
1	0.003400
2	0.004583
3	0.005634
4	0.006584
5	0.007300
6	0.007917
7	0.008550
8	0.009167
9	0.009700
10	0.010217
11	0.010484
12	0.010867
13	0.011384
14	0.011717
15	0.012050
16	0.012384
17	0.012700
18	0.013034
19	0.013317
20	0.013600
21	0.013867
22	0.014050
23	0.014234
24	0.014500
25	0.014784
26	0.015117
27	0.015401
28	0.015667
29	0.015834
30	0.016084
31	0.016367
32	0.016601
33	0.016934
34	0.017184
35	0.017401
36	0.017567
37	0.017767
38	0.017901
39	0.018034
40	0.018184
41	0.018351
42	0.018451
43	0.018584
44	0.018767
45	0.018884
46	0.019051
47	0.019201
48	0.019301
49	0.019467
50	0.019601
51	0.019767
52	0.019884
53	0.020051
54	0.020251
55	0.020367
56	0.020567
57	0.020767
58	0.020934
59	0.021084
60	0.021267
61	0.021351
62	0.021517
63	0.021634
64	0.021834
65	0.021934
66	0.022134
67	0.022284
68	0.022551
69	0.022617
70	0.022717
71	0.022851
72	0.022967
73	0.023134
74	0.023301
75	0.023501
76	0.023617
77	0.023767
78	0.023901
79	0.024017
80	0.024184
81	0.024367
82	0.024484
83	0.024601
84	0.024734
85	0.024851
86	0.024967
87	0.025034
88	0.025068
89	0.025218
90	0.025384
91	0.025451
92	0.025501
93	0.025568
94	0.025651
95	0.025701
96	0.025768
97	0.025901
98	0.025951
99	0.026118
100	0.026351
101	0.026384
102	0.026534
103	0.026584
104	0.026634
105	0.026734
106	0.026768
107	0.026868
108	0.026951
109	0.027034
110	0.027168
111	0.027334
112	0.027401
113	0.027518
114	0.027634
115	0.027751
116	0.027868
117	0.027984
118	0.028168
119	0.028251
120	0.028284
121	0.028384
122	0.028418
123	0.028501
124	0.028551
125	0.028651
126	0.028718
127	0.028834
128	0.029034
129	0.029134
130	0.029168
131	0.029284
132	0.029418
133	0.029501
134	0.029568
135	0.029601
136	0.029651
137	0.029734
138	0.029851
139	0.029934
140	0.030018
141	0.030118
142	0.030184
143	0.030234
144	0.030268
145	0.030351
146	0.030418
147	0.030518
148	0.030601
149	0.030668
150	0.030751
151	0.030834
152	0.030901
153	0.030984
154	0.031001
155	0.031051
156	0.031084
157	0.031134
158	0.031234
159	0.031268
160	0.031351
161	0.031451
162	0.031468
163	0.031551
164	0.031634
165	0.031718
166	0.031784
167	0.031851
168	0.031934
169	0.031984
170	0.032084
171	0.032151
172	0.032218
173	0.032268
174	0.032284
175	0.032351
176	0.032401
177	0.032484
178	0.032534
179	0.032584
180	0.032618
181	0.032701
182	0.032784
183	0.032884
184	0.032918
185	0.033001
186	0.033068
187	0.033168
188	0.033184
189	0.033201
190	0.033234
191	0.033384
192	0.033468
193	0.033501
194	0.033601
195	0.033651
196	0.033718
197	0.033784
198	0.033834
199	0.033868
200	0.033934
201	0.034001
202	0.034084
203	0.034151
204	0.034168
205	0.034251
206	0.034284
207	0.034334
208	0.034401
209	0.034484
210	0.034584
211	0.034668
212	0.034718
213	0.034768
214	0.034868
215	0.034918
216	0.034984
217	0.035118
218	0.035151
219	0.035201
220	0.035235
221	0.035335
222	0.035351
223	0.035418
224	0.035451
225	0.035468
226	0.035535
227	0.035585
228	0.035668
229	0.035768
230	0.035868
231	0.035901
233	0.035918
234	0.035968
235	0.036051
236	0.036068
237	0.036118
238	0.036235
239	0.036268
240	0.036385
241	0.036485
242	0.036585
243	0.036601
244	0.036618
245	0.036668
246	0.036751
247	0.036818
248	0.036851
249	0.036935
250	0.036968
251	0.037035
252	0.037101
253	0.037151
254	0.037218
255	0.037235
256	0.037318
257	0.037351
258	0.037435
259	0.037451
260	0.037485
261	0.037551
262	0.037601
263	0.037635
264	0.037685
265	0.037701
266	0.037751
267	0.037818
268	0.037885
269	0.037968
270	0.038035
271	0.038085
272	0.038135
273	0.038185
274	0.038201
275	0.038268
276	0.038301
277	0.038335
278	0.038351
279	0.038401
280	0.038418
281	0.038485
282	0.038501
283	0.038535
284	0.038585
285	0.038651
287	0.038718
288	0.038751
289	0.038768
290	0.038818
291	0.038835
292	0.038901
293	0.038935
294	0.038951
295	0.038968
297	0.038985
298	0.039035
299	0.039101
300	0.039151
301	0.039201
302	0.039301
303	0.039335
304	0.039351
305	0.039385
306	0.039435
307	0.039468
308	0.039501
309	0.039535
310	0.039568
311	0.039601
312	0.039635
313	0.039701
314	0.039768
315	0.039801
316	0.039851
317	0.039935
318	0.039985
320	0.040035
321	0.040051
322	0.040118
323	0.040201
324	0.040251
325	0.040301
326	0.040335
327	0.040368
328	0.040418
329	0.040468
330	0.040518
331	0.040535
332	0.040601
333	0.040651
334	0.040685
335	0.040718
336	0.040751
337	0.040785
338	0.040818
339	0.040901
341	0.040918
342	0.041001
343	0.041035
344	0.041068
345	0.041101
346	0.041151
347	0.041185
348	0.041218
349	0.041268
353	0.041301
354	0.041335
355	0.041385
356	0.041418
357	0.041501
358	0.041568
359	0.041585
360	0.041651
361	0.041735
362	0.041785
363	0.041818
364	0.041835
365	0.041851
366	0.041885
367	0.041918
368	0.041935
369	0.041985
370	0.042051
371	0.042068
372	0.042118
373	0.042185
374	0.042201
375	0.042235
376	0.042268
377	0.042335
378	0.042351
379	0.042368
382	0.042401
383	0.042485
384	0.042535
385	0.042551
386	0.042635
387	0.042668
388	0.042685
389	0.042701
390	0.042751
391	0.042835
392	0.042868
395	0.042918
396	0.042935
397	0.043018
398	0.043035
399	0.043051
400	0.043085
401	0.043118
403	0.043151
404	0.043168
405	0.043185
406	0.043201
407	0.043218
408	0.043235
409	0.043318
410	0.043351
411	0.043418
412	0.043451
413	0.043468
414	0.043501
415	0.043568
416	0.043585
417	0.043618
418	0.043635
420	0.043685
421	0.043718
423	0.043768
424	0.043785
425	0.043818
426	0.043835
427	0.043868
428	0.043918
429	0.043951
430	0.043968
431	0.044018
432	0.044035
434	0.044068
435	0.044118
436	0.044135
437	0.044168
438	0.044251
439	0.044268
440	0.044335
441	0.044351
442	0.044401
443	0.044418
444	0.044435
445	0.044451
446	0.044535
448	0.044585
449	0.044635
450	0.044718
451	0.044735
452	0.044785
453	0.044801
454	0.044868
455	0.044885
456	0.044901
457	0.044968
458	0.045002
459	0.045018
460	0.045118
461	0.045152
462	0.045185
463	0.045235
464	0.045268
465	0.045285
467	0.045302
469	0.045318
470	0.045352
471	0.045368
472	0.045385
473	0.045435
474	0.045468
475	0.045535
476	0.045552
480	0.045568
481	0.045635
482	0.045668
483	0.045685
484	0.045752
486	0.045802
487	0.045852
488	0.045918
489	0.045952
490	0.045985
491	0.046002
492	0.046035
493	0.046068
494	0.046085
495	0.046168
498	0.046202
499	0.046252
500	0.046285
501	0.046302
502	0.046335
504	0.046385
506	0.046402
507	0.046452
508	0.046468
509	0.046502
510	0.046518
511	0.046552
512	0.046568
514	0.046618
515	0.046652
516	0.046685
517	0.046718
518	0.046735
520	0.046752
522	0.046768
523	0.046802
525	0.046868
526	0.046918
527	0.046968
528	0.047002
529	0.047018
530	0.047035
532	0.047052
533	0.047102
535	0.047118
536	0.047168
537	0.047185
538	0.047202
539	0.047252
540	0.047268
541	0.047285
543	0.047352
544	0.047385
545	0.047418
546	0.047452
547	0.047502
548	0.047518
549	0.047552
550	0.047568
551	0.047585
553	0.047602
554	0.047652
555	0.047702
556	0.047718
557	0.047785
558	0.047802
559	0.047818
560	0.047852
561	0.047885
562	0.047902
563	0.047935
565	0.047952
566	0.047985
567	0.048035
568	0.048085
569	0.048118
570	0.048168
571	0.048185
574	0.048252
576	0.048302
578	0.048335
579	0.048435
582	0.048468
583	0.048552
584	0.048585
585	0.048602
588	0.048635
589	0.048668
590	0.048702
592	0.048735
593	0.048785
595	0.048818
596	0.048852
597	0.048885
598	0.048952
599	0.049002
601	0.049052
602	0.049068
603	0.049118
605	0.049152
608	0.049168
609	0.049185
610	0.049235
611	0.049268
612	0.049285
613	0.049335
614	0.049352
615	0.049385
616	0.049402
617	0.049435
618	0.049502
619	0.049535
620	0.049585
621	0.049602
622	0.049635
623	0.049685
624	0.049718
625	0.049752
626	0.049802
628	0.049852
629	0.049918
630	0.049935
631	0.049985
632	0.050035
633	0.050052
634	0.050068
635	0.050085
636	0.050152
637	0.050168
638	0.050202
639	0.050218
640	0.050268
641	0.050318
642	0.050335
643	0.050368
644	0.050418
645	0.050452
647	0.050485
648	0.050502
649	0.050552
650	0.050602
651	0.050652
652	0.050668
653	0.050735
654	0.050802
655	0.050818
656	0.050868
657	0.050902
660	0.050918
661	0.050968
662	0.050985
663	0.051018
666	0.051035
667	0.051052
670	0.051085
671	0.051152
672	0.051185
673	0.051235
674	0.051268
675	0.051285
676	0.051335
677	0.051385
678	0.051418
679	0.051435
680	0.051468
681	0.051502
683	0.051535
684	0.051568
685	0.051602
687	0.051652
689	0.051685
690	0.051702
692	0.051718
696	0.051735
697	0.051752
699	0.051768
700	0.051802
701	0.051835
702	0.051852
703	0.051868
705	0.051885
706	0.051902
707	0.051918
708	0.051935
710	0.051952
711	0.051985
713	0.052002
714	0.052035
716	0.052052
719	0.052068
720	0.052085
722	0.052102
723	0.052152
724	0.052185
725	0.052218
726	0.052235
727	0.052268
729	0.052285
731	0.052335
734	0.052352
735	0.052385
736	0.052402
738	0.052485
739	0.052518
740	0.052585
741	0.052635
742	0.052652
743	0.052668
744	0.052702
745	0.052718
746	0.052735
747	0.052768
748	0.052785
749	0.052818
751	0.052852
752	0.052885
753	0.052935
754	0.053002
755	0.053018
757	0.053035
758	0.053052
761	0.053102
762	0.053118
764	0.053135
765	0.053152
766	0.053185
767	0.053218
768	0.053235
770	0.053252
771	0.053285
772	0.053302
773	0.053335
774	0.053385
776	0.053435
777	0.053452
778	0.053468
779	0.053502
780	0.053535
781	0.053552
783	0.053568
784	0.053618
785	0.053685
786	0.053718
787	0.053752
788	0.053818
789	0.053852
791	0.053885
793	0.053902
794	0.053935
796	0.053952
798	0.053968
799	0.054002
800	0.054018
801	0.054035
802	0.054052
803	0.054102
804	0.054118
805	0.054168
806	0.054202
807	0.054218
811	0.054235
812	0.054268
813	0.054285
814	0.054302
815	0.054318
816	0.054368
819	0.054385
821	0.054402
822	0.054418
825	0.054435
826	0.054468
828	0.054485
829	0.054502
831	0.054518
832	0.054552
833	0.054585
835	0.054602
836	0.054618
837	0.054635
838	0.054652
839	0.054685
841	0.054702
842	0.054718
843	0.054752
845	0.054785
847	0.054835
848	0.054852
850	0.054868
851	0.054885
852	0.054902
854	0.054918
856	0.054952
859	0.055002
861	0.055019
863	0.055035
864	0.055069
865	0.055119
866	0.055135
867	0.055152
869	0.055169
871	0.055202
872	0.055219
878	0.055235
879	0.055269
880	0.055335
881	0.055352
882	0.055402
883	0.055419
884	0.055452
887	0.055469
888	0.055502
889	0.055519
891	0.055552
892	0.055569
893	0.055585
895	0.055602
897	0.055619
898	0.055635
899	0.055652
900	0.055685
904	0.055702
906	0.055735
907	0.055752
908	0.055769
909	0.055785
910	0.055802
911	0.055835
912	0.055852
913	0.055885
914	0.055919
915	0.055952
917	0.055969
918	0.055985
921	0.056002
923	0.056035
924	0.056052
925	0.056102
926	0.056135
927	0.056152
928	0.056185
930	0.056235
931	0.056252
932	0.056269
936	0.056302
937	0.056335
938	0.056385
941	0.056452
942	0.056485
943	0.056502
944	0.056519
945	0.056535
947	0.056552
950	0.056569
951	0.056585
955	0.056652
956	0.056669
957	0.056719
959	0.056752
960	0.056785
963	0.056802
964	0.056819
965	0.056835
966	0.056852
967	0.056869
969	0.056902
970	0.056919
972	0.056935
974	0.056952
975	0.057019
976	0.057052
977	0.057069
978	0.057085
979	0.057102
981	0.057119
982	0.057135
983	0.057152
985	0.057169
986	0.057185
987	0.057219
988	0.057235
989	0.057252
990	0.057285
993	0.057335
995	0.057369
997	0.057402
1000	0.057419
1001	0.057435
1002	0.057469
1004	0.057502
1005	0.057552
1006	0.057569
1009	0.057585
1012	0.057602
1013	0.057619
1014	0.057652
1016	0.057669
1018	0.057702
1021	0.057719
1022	0.057752
1023	0.057785
1024	0.057802
1025	0.057819
1027	0.057852
1028	0.057869
1030	0.057885
1033	0.057935
1034	0.057952
1035	0.058002
1037	0.058019
1038	0.058035
1039	0.058069
1040	0.058102
1041	0.058119
1042	0.058169
1043	0.058185
1045	0.058219
1049	0.058252
1052	0.058269
1053	0.058285
1054	0.058302
1055	0.058335
1056	0.058352
1057	0.058385
1059	0.058402
1060	0.058419
1061	0.058435
1063	0.058452
1065	0.058485
1066	0.058519
1067	0.058552
1068	0.058585
1072	0.058602
1073	0.058635
1075	0.058652
1078	0.058669
1082	0.058702
1084	0.058735
1085	0.058752
1088	0.058769
1089	0.058802
1090	0.058819
1091	0.058835
1092	0.058885
1094	0.058902
1095	0.058919
1096	0.058935
1097	0.058969
1099	0.058985
1100	0.059002
1102	0.059019
1103	0.059069
1107	0.059085
1108	0.059102
1110	0.059135
1111	0.059152
1112	0.059185
1113	0.059219
1114	0.059235
1115	0.059269
1118	0.059285
1119	0.059302
1120	0.059319
1121	0.059335
1122	0.059385
1123	0.059402
1125	0.059435
1126	0.059452
1127	0.059469
1128	0.059485
1129	0.059519
1132	0.059552
1133	0.059602
1134	0.059619
1135	0.059635
1138	0.059669
1139	0.059685
1140	0.059702
1141	0.059735
1143	0.059752
1144	0.059802
1145	0.059819
1147	0.059835
1149	0.059852
1151	0.059885
1153	0.059919
1155	0.059935
1157	0.059985
1158	0.060002
1159	0.060035
1161	0.060069
1162	0.060102
1163	0.060119
1165	0.060135
1166	0.060152
1168	0.060169
1169	0.060185
1170	0.060202
1172	0.060219
1173	0.060252
1174	0.060285
1178	0.060302
1182	0.060369
1183	0.060452
1184	0.060469
1185	0.060485
1186	0.060502
1189	0.060519
1190	0.060552
1191	0.060569
1192	0.060585
1193	0.060602
1194	0.060635
1195	0.060652
1196	0.060685
1198	0.060702
1200	0.060719
1201	0.060735
1202	0.060769
1203	0.060785
1204	0.060869
1205	0.060919
1208	0.060952
1209	0.060969
1211	0.061019
1212	0.061069
1214	0.061119
1216	0.061135
1217	0.061152
1219	0.061169
1220	0.061202
1221	0.061219
1222	0.061252
1224	0.061285
1225	0.061302
1226	0.061319
1228	0.061352
1232	0.061369
1233	0.061402
1234	0.061435
1235	0.061452
1236	0.061469
1241	0.061519
1242	0.061552
1244	0.061569
1246	0.061585
1247	0.061602
1248	0.061635
1249	0.061669
1253	0.061702
1255	0.061719
1256	0.061735
1258	0.061785
1259	0.061802
1262	0.061835
1264	0.061852
1265	0.061885
1266	0.061935
1267	0.061952
1269	0.061969
1272	0.061985
1273	0.062002
1274	0.062019
1276	0.062052
1277	0.062085
1279	0.062102
1280	0.062169
1281	0.062185
1282	0.062202
1283	0.062219
1284	0.062235
1285	0.062285
1286	0.062335
1287	0.062352
1290	0.062369
1291	0.062385
1292	0.062402
1295	0.062435
1297	0.062469
1298	0.062485
1299	0.062502
1300	0.062519
1302	0.062535
1303	0.062552
1304	0.062569
1305	0.062602
1307	0.062619
1310	0.062635
1313	0.062685
1314	0.062702
1315	0.062735
1316	0.062802
1318	0.062819
1319	0.062835
1321	0.062885
1322	0.062902
1323	0.062935
1324	0.062969
1325	0.063035
1326	0.063052
1327	0.063069
1328	0.063102
1329	0.063152
1330	0.063169
1332	0.063185
1333	0.063202
1336	0.063235
1338	0.063269
1339	0.063285
1340	0.063319
1341	0.063352
1343	0.063369
1345	0.063385
1346	0.063402
1349	0.063419
1350	0.063435
1351	0.063452
1352	0.063485
1353	0.063502
1354	0.063519
1356	0.063552
1357	0.063602
1359	0.063619
1360	0.063635
1364	0.063669
1365	0.063685
1371	0.063702
1373	0.063735
1375	0.063752
1376	0.063769
1378	0.063785
1381	0.063802
1382	0.063819
1384	0.063852
1385	0.063869
1386	0.063885
1388	0.063919
1389	0.063952
1391	0.063969
1394	0.063985
1396	0.064002
1397	0.064035
1398	0.064052
1400	0.064069
1404	0.064085
1406	0.064119
1407	0.064135
1408	0.064169
1409	0.064202
1410	0.064219
1411	0.064235
1412	0.064252
1415	0.064269
1416	0.064285
1418	0.064302
1419	0.064319
1421	0.064335
1422	0.064352
1423	0.064369
1427	0.064385
1429	0.064402
1431	0.064419
1433	0.064452
1434	0.064469
1435	0.064485
1436	0.064502
1440	0.064535
1441	0.064552
1442	0.064585
1445	0.064602
1448	0.064635
1452	0.064669
1459	0.064702
1460	0.064719
1462	0.064735
1467	0.064785
1472	0.064802
1473	0.064819
1474	0.064835
1477	0.064852
1480	0.064869
1481	0.064919
1483	0.064935
1484	0.064952
1485	0.064985
1486	0.065019
1487	0.065036
1488	0.065052
1489	0.065069
1490	0.065086
1491	0.065119
1493	0.065136
1494	0.065152
1495	0.065202
1498	0.065269
1500	0.065302
1501	0.065386
1502	0.065436
1504	0.065452
1505	0.065469
1507	0.065486
1509	0.065502
1511	0.065552
1514	0.065569
1517	0.065586
1522	0.065602
1526	0.065619
1527	0.065652
1529	0.065669
1535	0.065686
1537	0.065719
1539	0.065786
1542	0.065802
1544	0.065852
1548	0.065902
1549	0.065936
1551	0.065952
1552	0.065986
1554	0.066019
1556	0.066036
1557	0.066069
1559	0.066102
1560	0.066136
1562	0.066169
1563	0.066186
1564	0.066202
1565	0.066236
1566	0.066252
1569	0.066269
1570	0.066286
1573	0.066302
1575	0.066319
1576	0.066369
1579	0.066386
1581	0.066402
1582	0.066436
1583	0.066452
1585	0.066469
1587	0.066486
1590	0.066536
1592	0.066552
1594	0.066569
1595	0.066602
1597	0.066636
1599	0.066686
1601	0.066702
1602	0.066719
1603	0.066769
1604	0.066786
1605	0.066802
1609	0.066819
1610	0.066836
1613	0.066886
1615	0.066902
1617	0.066936
1618	0.066952
1619	0.066986
1620	0.067019
1623	0.067036
1625	0.067052
1627	0.067102
1630	0.067119
1631	0.067152
1632	0.067169
1633	0.067202
1635	0.067219
1639	0.067252
1643	0.067286
1644	0.067319
1646	0.067336
1648	0.067386
1649	0.067402
1650	0.067419
1651	0.067436
1652	0.067452
1653	0.067469
1656	0.067486
1657	0.067502
1661	0.067536
1666	0.067552
1667	0.067569
1668	0.067619
1669	0.067636
1676	0.067669
1679	0.067686
1680	0.067702
1681	0.067736
1684	0.067786
1686	0.067802
1687	0.067836
1688	0.067852
1689	0.067869
1692	0.067886
1693	0.067902
1694	0.067936
1695	0.067952
1696	0.067969
1698	0.067986
1699	0.068019
1701	0.068052
1703	0.068086
1704	0.068102
1705	0.068136
1706	0.068169
1710	0.068186
1712	0.068219
1713	0.068252
1716	0.068269
1717	0.068286
1718	0.068302
1719	0.068319
1720	0.068336
1721	0.068352
1722	0.068369
1723	0.068386
1724	0.068402
1725	0.068419
1726	0.068436
1728	0.068452
1729	0.068469
1731	0.068486
1733	0.068536
1734	0.068552
1735	0.068569
1736	0.068586
1739	0.068602
1741	0.068619
1743	0.068652
1745	0.068669
1747	0.068686
1750	0.068702
1751	0.068719
1753	0.068736
1756	0.068752
1757	0.068769
1759	0.068819
1761	0.068836
1763	0.068852
1764	0.068869
1769	0.068919
1772	0.068969
1773	0.069002
1774	0.069019
1775	0.069036
1778	0.069052
1779	0.069069
1780	0.069086
1781	0.069119
1783	0.069136
1785	0.069152
1786	0.069169
1788	0.069202
1791	0.069219
1792	0.069236
1793	0.069286
1794	0.069302
1796	0.069319
1797	0.069336
1798	0.069402
1799	0.069419
1802	0.069452
1803	0.069469
1804	0.069486
1805	0.069519
1807	0.069536
1809	0.069552
1810	0.069619
1812	0.069636
1815	0.069652
1816	0.069686
1817	0.069702
1818	0.069719
1822	0.069752
1823	0.069769
1824	0.069786
1829	0.069802
1831	0.069819
1832	0.069836
1833	0.069852
1834	0.069869
1838	0.069886
1839	0.069919
1841	0.069952
1845	0.069969
1850	0.070002
1851	0.070036
1852	0.070069
1856	0.070086
1858	0.070102
1861	0.070119
1862	0.070136
1869	0.070169
1874	0.070186
1875	0.070202
1877	0.070219
1878	0.070236
1879	0.070269
1882	0.070286
1884	0.070302
1886	0.070336
1888	0.070352
1890	0.070369
1891	0.070386
1894	0.070402
1898	0.070436
1899	0.070469
1900	0.070486
1901	0.070502
1905	0.070569
1906	0.070602
1907	0.070619
1909	0.070636
1914	0.070652
1916	0.070686
1919	0.070702
1920	0.070736
1922	0.070752
1926	0.070769
1927	0.070802
1931	0.070836
1932	0.070852
1934	0.070869
1935	0.070886
1936	0.070902
1938	0.070919
1942	0.070952
1943	0.071002
1944	0.071019
1946	0.071069
1947	0.071102
1949	0.071119
1950	0.071136
1952	0.071169
1954	0.071186
1955	0.071202
1957	0.071219
1962	0.071236
1964	0.071252
1965	0.071269
1966	0.071319
1972	0.071386
1975	0.071402
1977	0.071436
1978	0.071469
1979	0.071502
1980	0.071519
1981	0.071536
1982	0.071552
1984	0.071569
1986	0.071619
1987	0.071636
1990	0.071652
1991	0.071669
1992	0.071702
1996	0.071719
1997	0.071752
1999	0.071769
2003	0.071802
2004	0.071836
2005	0.071852
2008	0.071869
2009	0.071919
2010	0.071936
2012	0.071952
2013	0.071969
2020	0.072002
2021	0.072036
2022	0.072052
2025	0.072069
2027	0.072102
2030	0.072136
2032	0.072152
2034	0.072169
2035	0.072202
2036	0.072219
2037	0.072252
2041	0.072269
2042	0.072302
2044	0.072319
2045	0.072336
2048	0.072352
2049	0.072369
2053	0.072386
2054	0.072419
2055	0.072436
2057	0.072452
2058	0.072469
2060	0.072486
2061	0.072502
2063	0.072519
2065	0.072569
2066	0.072586
2069	0.072636
2072	0.072652
2075	0.072686
2076	0.072702
2078	0.072719
2079	0.072736
2081	0.072752
2083	0.072769
2084	0.072802
2085	0.072819
2088	0.072836
2090	0.072886
2091	0.072902
2092	0.072919
2093	0.072936
2098	0.072952
2100	0.072969
2101	0.072986
2106	0.073019
2111	0.073036
2116	0.073052
2117	0.073069
2120	0.073086
2121	0.073102
2122	0.073136
2123	0.073169
2125	0.073186
2127	0.073236
2128	0.073269
2129	0.073286
2130	0.073302
2137	0.073319
2139	0.073336
2142	0.073352
2143	0.073369
2144	0.073402
2145	0.073419
2146	0.073452
2147	0.073469
2148	0.073486
2150	0.073502
2151	0.073519
2152	0.073536
2154	0.073552
2156	0.073569
2158	0.073602
