key	frequency
0	0.002300
1	0.004033
2	0.005533
3	0.006583
4	0.007250
5	0.007950
6	0.008550
7	0.009250
8	0.009650
9	0.010067
10	0.010550
11	0.010933
12	0.011317
13	0.011783
14	0.012150
15	0.012533
16	0.012867
17	0.013250
18	0.013533
19	0.013850
20	0.014117
21	0.014350
22	0.014633
23	0.015017
24	0.015317
25	0.015550
26	0.015867
27	0.016017
28	0.016133
29	0.016383
30	0.016650
31	0.016933
32	0.017117
33	0.017333
34	0.017500
35	0.017767
36	0.017967
37	0.018117
38	0.018367
39	0.018567
40	0.018783
41	0.018933
42	0.019033
43	0.019250
44	0.019533
45	0.019600
46	0.019783
47	0.019850
48	0.020000
49	0.020250
50	0.020417
51	0.020583
52	0.020817
53	0.020917
54	0.021117
55	0.021283
56	0.021517
57	0.021600
58	0.021667
59	0.021800
60	0.021917
61	0.022100
62	0.022200
63	0.022333
64	0.022400
65	0.022467
66	0.022667
67	0.022717
68	0.022850
69	0.023017
70	0.023150
71	0.023267
72	0.023417
73	0.023600
74	0.023667
75	0.023867
76	0.023950
77	0.024083
78	0.024150
79	0.024283
80	0.024333
81	0.024450
82	0.024567
83	0.024650
84	0.024733
85	0.024850
86	0.024917
87	0.024950
88	0.025100
89	0.025233
90	0.025300
91	0.025367
92	0.025550
93	0.025683
94	0.025733
95	0.025867
96	0.025967
97	0.026017
98	0.026067
99	0.026117
100	0.026300
101	0.026367
102	0.026450
103	0.026533
104	0.026600
105	0.026683
106	0.026733
107	0.026850
108	0.026950
109	0.027033
110	0.027100
111	0.027167
112	0.027283
113	0.027400
114	0.027517
115	0.027633
116	0.027733
117	0.027767
118	0.027850
119	0.027900
120	0.028000
121	0.028117
122	0.028167
123	0.028217
124	0.028300
125	0.028317
126	0.028400
127	0.028450
128	0.028567
129	0.028583
130	0.028650
131	0.028717
132	0.028733
133	0.028883
134	0.028933
135	0.029033
136	0.029117
137	0.029217
139	0.029317
140	0.029467
141	0.029567
142	0.029600
143	0.029617
144	0.029700
146	0.029783
147	0.029850
148	0.029867
149	0.029933
150	0.029983
151	0.030033
152	0.030117
153	0.030167
154	0.030250
155	0.030317
156	0.030333
157	0.030400
158	0.030500
159	0.030550
160	0.030633
161	0.030717
162	0.030817
163	0.030850
164	0.030917
165	0.030950
166	0.031067
167	0.031150
168	0.031250
169	0.031367
170	0.031400
171	0.031500
172	0.031567
173	0.031617
174	0.031667
175	0.031783
176	0.031850
177	0.031900
178	0.031950
179	0.031967
180	0.032000
181	0.032050
182	0.032133
183	0.032167
184	0.032267
185	0.032350
186	0.032367
187	0.032467
188	0.032533
189	0.032567
190	0.032600
191	0.032667
192	0.032733
193	0.032783
194	0.032833
195	0.032900
196	0.032950
197	0.032983
198	0.033033
199	0.033117
200	0.033150
201	0.033167
202	0.033250
203	0.033283
204	0.033350
205	0.033433
206	0.033467
207	0.033600
208	0.033617
209	0.033683
210	0.033733
211	0.033800
212	0.033850
213	0.033883
214	0.033933
215	0.034017
216	0.034067
217	0.034083
218	0.034150
219	0.034217
220	0.034283
221	0.034367
222	0.034400
223	0.034450
225	0.034500
226	0.034550
227	0.034650
228	0.034700
229	0.034783
230	0.034850
231	0.034883
232	0.034900
233	0.034983
234	0.035017
235	0.035050
236	0.035083
237	0.035167
238	0.035200
239	0.035233
240	0.035283
241	0.035383
242	0.035433
243	0.035550
244	0.035567
245	0.035617
246	0.035633
247	0.035700
248	0.035717
249	0.035750
250	0.035817
251	0.035850
252	0.035917
253	0.035950
254	0.035983
255	0.036050
256	0.036100
257	0.036150
258	0.036233
259	0.036267
260	0.036317
261	0.036350
262	0.036467
263	0.036550
264	0.036633
265	0.036700
266	0.036733
267	0.036800
268	0.036817
269	0.036850
270	0.036900
271	0.036950
272	0.036983
273	0.037000
275	0.037083
276	0.037133
277	0.037200
278	0.037233
279	0.037300
280	0.037367
281	0.037417
282	0.037450
283	0.037517
285	0.037567
286	0.037583
287	0.037600
288	0.037617
289	0.037683
290	0.037733
291	0.037767
292	0.037817
293	0.037833
294	0.037850
295	0.037883
296	0.037900
297	0.037983
298	0.038033
299	0.038050
300	0.038067
301	0.038100
302	0.038183
303	0.038233
304	0.038300
305	0.038333
306	0.038417
307	0.038450
308	0.038533
309	0.038617
310	0.038683
311	0.038750
312	0.038767
313	0.038800
314	0.038817
315	0.038833
316	0.038883
317	0.038900
318	0.038933
319	0.039000
320	0.039067
321	0.039100
322	0.039117
323	0.039183
324	0.039250
325	0.039317
326	0.039367
327	0.039483
328	0.039517
329	0.039533
330	0.039550
331	0.039583
332	0.039600
335	0.039617
336	0.039633
337	0.039667
338	0.039700
339	0.039717
340	0.039750
341	0.039800
342	0.039867
343	0.039933
344	0.040000
345	0.040050
346	0.040083
347	0.040117
348	0.040167
349	0.040183
352	0.040233
354	0.040300
355	0.040350
356	0.040417
357	0.040433
358	0.040483
359	0.040533
360	0.040567
361	0.040600
363	0.040650
364	0.040700
365	0.040767
367	0.040800
368	0.040833
369	0.040933
370	0.041017
371	0.041067
372	0.041083
373	0.041133
374	0.041167
375	0.041183
376	0.041200
377	0.041217
378	0.041283
379	0.041317
380	0.041350
381	0.041417
383	0.041467
384	0.041533
385	0.041567
386	0.041583
387	0.041617
388	0.041683
390	0.041700
391	0.041750
393	0.041783
394	0.041800
395	0.041867
396	0.041883
397	0.041900
398	0.041967
401	0.042033
402	0.042050
403	0.042067
407	0.042083
408	0.042117
409	0.042183
410	0.042283
411	0.042300
412	0.042333
413	0.042350
414	0.042383
416	0.042400
417	0.042433
418	0.042467
419	0.042500
420	0.042517
421	0.042583
422	0.042600
423	0.042667
424	0.042683
425	0.042700
427	0.042767
429	0.042800
431	0.042833
432	0.042850
433	0.042867
434	0.042933
436	0.042983
437	0.043000
438	0.043033
439	0.043067
440	0.043117
441	0.043217
442	0.043267
443	0.043283
444	0.043317
445	0.043333
446	0.043383
447	0.043417
448	0.043433
449	0.043467
450	0.043483
451	0.043517
452	0.043567
453	0.043633
454	0.043667
455	0.043683
456	0.043733
457	0.043800
458	0.043833
459	0.043883
460	0.043917
461	0.043933
462	0.044017
463	0.044083
465	0.044117
466	0.044133
467	0.044167
468	0.044183
469	0.044217
471	0.044233
472	0.044283
473	0.044300
474	0.044317
476	0.044333
477	0.044350
480	0.044383
481	0.044400
482	0.044500
483	0.044533
484	0.044567
485	0.044633
486	0.044667
487	0.044700
488	0.044717
489	0.044733
490	0.044750
491	0.044817
492	0.044850
493	0.044917
494	0.044950
495	0.044967
496	0.045050
497	0.045067
499	0.045150
500	0.045200
501	0.045233
502	0.045267
503	0.045300
504	0.045350
505	0.045417
506	0.045467
507	0.045483
509	0.045500
511	0.045517
512	0.045583
514	0.045617
515	0.045633
516	0.045650
517	0.045717
518	0.045733
519	0.045750
521	0.045767
522	0.045817
523	0.045883
524	0.045917
525	0.045967
526	0.045983
528	0.046000
529	0.046017
530	0.046050
531	0.046083
532	0.046117
533	0.046133
534	0.046183
535	0.046233
537	0.046267
538	0.046283
539	0.046317
541	0.046400
543	0.046433
545	0.046483
546	0.046500
547	0.046517
548	0.046550
549	0.046567
551	0.046600
552	0.046617
553	0.046633
554	0.046700
555	0.046783
556	0.046817
558	0.046833
559	0.046900
560	0.046933
563	0.046967
564	0.046983
565	0.047000
566	0.047017
567	0.047067
568	0.047100
569	0.047117
571	0.047150
572	0.047200
573	0.047267
575	0.047300
577	0.047383
578	0.047483
580	0.047533
582	0.047567
583	0.047633
584	0.047667
586	0.047700
587	0.047717
589	0.047783
590	0.047817
591	0.047883
592	0.047917
594	0.047933
596	0.047983
597	0.048000
600	0.048017
601	0.048067
602	0.048133
605	0.048200
606	0.048233
608	0.048250
610	0.048317
611	0.048333
612	0.048383
613	0.048417
614	0.048450
615	0.048483
617	0.048500
618	0.048517
619	0.048533
620	0.048567
622	0.048583
623	0.048600
624	0.048633
625	0.048667
626	0.048683
628	0.048700
629	0.048717
630	0.048733
631	0.048750
632	0.048767
633	0.048783
634	0.048800
636	0.048817
637	0.048833
638	0.048850
640	0.048883
641	0.048900
642	0.048950
644	0.048983
645	0.049000
646	0.049033
647	0.049050
648	0.049067
649	0.049100
650	0.049117
653	0.049150
654	0.049167
655	0.049217
656	0.049233
657	0.049283
660	0.049350
664	0.049417
665	0.049450
666	0.049500
667	0.049533
668	0.049550
670	0.049583
671	0.049617
672	0.049633
673	0.049650
674	0.049667
675	0.049683
676	0.049700
677	0.049750
678	0.049800
680	0.049817
681	0.049850
682	0.049900
684	0.049933
686	0.049950
688	0.049967
689	0.049983
690	0.050017
692	0.050033
693	0.050050
695	0.050083
697	0.050117
699	0.050133
700	0.050150
701	0.050167
702	0.050200
703	0.050233
704	0.050283
705	0.050317
707	0.050350
708	0.050367
709	0.050383
710	0.050400
711	0.050433
713	0.050450
715	0.050483
716	0.050500
717	0.050533
718	0.050583
719	0.050633
720	0.050650
721	0.050683
722	0.050767
723	0.050800
724	0.050850
730	0.050867
731	0.050950
732	0.050967
733	0.050983
734	0.051000
735	0.051050
736	0.051083
737	0.051117
739	0.051133
740	0.051167
742	0.051217
744	0.051233
745	0.051283
748	0.051317
749	0.051333
750	0.051367
751	0.051383
752	0.051450
753	0.051483
754	0.051517
755	0.051533
756	0.051567
757	0.051583
758	0.051633
759	0.051667
760	0.051683
761	0.051700
762	0.051717
764	0.051767
765	0.051800
766	0.051817
768	0.051833
769	0.051850
770	0.051900
771	0.051933
772	0.051950
773	0.051967
774	0.051983
775	0.052033
776	0.052050
777	0.052083
781	0.052100
783	0.052117
784	0.052150
785	0.052167
786	0.052183
787	0.052233
788	0.052267
789	0.052283
790	0.052317
791	0.052367
792	0.052383
793	0.052400
794	0.052417
795	0.052450
796	0.052500
797	0.052533
798	0.052600
799	0.052633
800	0.052683
801	0.052700
803	0.052733
804	0.052783
806	0.052833
807	0.052867
809	0.052933
810	0.052983
811	0.053017
812	0.053033
813	0.053050
814	0.053067
815	0.053133
817	0.053150
818	0.053200
819	0.053233
820	0.053250
822	0.053267
823	0.053300
826	0.053317
827	0.053333
828	0.053350
829	0.053367
832	0.053400
833	0.053417
834	0.053467
835	0.053483
837	0.053517
839	0.053533
842	0.053550
843	0.053583
844	0.053617
845	0.053633
846	0.053650
847	0.053667
848	0.053733
849	0.053783
850	0.053817
851	0.053850
852	0.053883
853	0.053950
854	0.053967
855	0.053983
856	0.054033
859	0.054050
860	0.054083
861	0.054100
862	0.054133
863	0.054150
864	0.054167
866	0.054183
869	0.054217
870	0.054233
871	0.054250
873	0.054283
875	0.054333
876	0.054367
878	0.054383
881	0.054400
882	0.054417
884	0.054433
887	0.054467
888	0.054500
890	0.054517
891	0.054550
892	0.054567
894	0.054600
895	0.054633
897	0.054667
898	0.054700
902	0.054717
903	0.054733
904	0.054750
905	0.054783
906	0.054800
907	0.054817
908	0.054833
909	0.054867
910	0.054883
912	0.054900
913	0.054933
915	0.054950
916	0.054983
918	0.055000
919	0.055050
921	0.055067
922	0.055133
923	0.055183
924	0.055200
925	0.055233
926	0.055250
929	0.055300
930	0.055333
931	0.055350
935	0.055367
936	0.055383
937	0.055400
938	0.055417
939	0.055433
940	0.055467
942	0.055483
943	0.055500
946	0.055567
947	0.055617
949	0.055633
950	0.055650
951	0.055683
952	0.055717
956	0.055750
957	0.055783
958	0.055800
960	0.055817
961	0.055867
962	0.055900
963	0.055917
964	0.055950
966	0.056000
967	0.056017
970	0.056067
971	0.056083
972	0.056150
973	0.056167
974	0.056183
976	0.056233
979	0.056300
980	0.056317
982	0.056367
983	0.056383
985	0.056400
986	0.056433
989	0.056483
990	0.056500
992	0.056567
993	0.056583
994	0.056617
995	0.056633
996	0.056650
998	0.056700
999	0.056733
1000	0.056767
1001	0.056783
1004	0.056817
1005	0.056833
1006	0.056850
1007	0.056867
1013	0.056917
1016	0.057000
1017	0.057033
1019	0.057050
1020	0.057067
1022	0.057083
1024	0.057117
1025	0.057150
1026	0.057183
1027	0.057200
1028	0.057217
1029	0.057250
1030	0.057283
1031	0.057300
1034	0.057317
1035	0.057333
1036	0.057350
1037	0.057400
1039	0.057433
1041	0.057450
1042	0.057483
1043	0.057500
1044	0.057517
1045	0.057567
1046	0.057600
1047	0.057650
1049	0.057667
1050	0.057683
1051	0.057700
1052	0.057717
1055	0.057750
1056	0.057783
1057	0.057817
1059	0.057850
1060	0.057883
1061	0.057900
1062	0.057950
1063	0.057983
1064	0.058033
1066	0.058067
1067	0.058083
1071	0.058100
1074	0.058117
1076	0.058133
1078	0.058167
1080	0.058200
1081	0.058233
1084	0.058250
1085	0.058267
1086	0.058283
1089	0.058300
1092	0.058350
1093	0.058383
1094	0.058400
1095	0.058433
1096	0.058483
1097	0.058500
1098	0.058550
1099	0.058583
1102	0.058617
1103	0.058633
1104	0.058700
1106	0.058750
1109	0.058817
1110	0.058833
1111	0.058867
1114	0.058900
1115	0.058933
1116	0.058950
1118	0.058967
1119	0.058983
1122	0.059017
1125	0.059050
1126	0.059067
1128	0.059100
1130	0.059117
1131	0.059133
1134	0.059150
1135	0.059167
1136	0.059183
1137	0.059200
1138	0.059250
1140	0.059300
1141	0.059317
1142	0.059350
1143	0.059367
1144	0.059383
1148	0.059400
1149	0.059417
1150	0.059433
1151	0.059467
1158	0.059500
1161	0.059533
1162	0.059550
1164	0.059583
1166	0.059600
1171	0.059617
1174	0.059633
1175	0.059650
1176	0.059667
1177	0.059683
1178	0.059700
1179	0.059717
1180	0.059750
1182	0.059800
1185	0.059817
1186	0.059833
1187	0.059850
1189	0.059883
1190	0.059900
1193	0.059917
1199	0.059933
1200	0.059950
1201	0.059983
1202	0.060000
1203	0.060017
1205	0.060067
1207	0.060083
1209	0.060117
1211	0.060133
1212	0.060150
1213	0.060167
1214	0.060183
1215	0.060200
1216	0.060233
1218	0.060267
1219	0.060300
1220	0.060333
1221	0.060350
1222	0.060367
1224	0.060400
1225	0.060417
1228	0.060450
1229	0.060483
1230	0.060500
1232	0.060533
1233	0.060567
1235	0.060583
1236	0.060600
1237	0.060667
1239	0.060683
1243	0.060700
1244	0.060750
1246	0.060800
1248	0.060833
1249	0.060850
1253	0.060883
1254	0.060917
1255	0.060950
1257	0.060983
1258	0.061000
1259	0.061017
1260	0.061050
1261	0.061083
1262	0.061117
1263	0.061150
1266	0.061167
1268	0.061183
1270	0.061217
1272	0.061250
1273	0.061267
1274	0.061283
1275	0.061300
1276	0.061333
1277	0.061350
1278	0.061367
1280	0.061400
1281	0.061417
1285	0.061450
1288	0.061467
1289	0.061517
1290	0.061567
1291	0.061583
1292	0.061600
1294	0.061617
1296	0.061650
1300	0.061667
1303	0.061683
1304	0.061700
1305	0.061717
1306	0.061750
1307	0.061767
1308	0.061800
1309	0.061817
1310	0.061833
1311	0.061850
1313	0.061867
1315	0.061883
1318	0.061950
1319	0.061967
1320	0.062000
1321	0.062050
1322	0.062083
1323	0.062100
1324	0.062133
1325	0.062167
1327	0.062200
1331	0.062217
1334	0.062233
1335	0.062250
1336	0.062267
1338	0.062300
1339	0.062333
1340	0.062367
1341	0.062383
1342	0.062400
1346	0.062417
1351	0.062433
1352	0.062467
1353	0.062500
1354	0.062533
1356	0.062600
1357	0.062617
1358	0.062650
1359	0.062683
1361	0.062733
1362	0.062783
1363	0.062817
1365	0.062850
1366	0.062883
1368	0.062900
1369	0.062917
1371	0.062933
1372	0.062950
1375	0.062967
1376	0.062983
1377	0.063000
1379	0.063017
1380	0.063050
1381	0.063067
1382	0.063083
1384	0.063117
1386	0.063133
1387	0.063150
1388	0.063167
1389	0.063183
1392	0.063200
1394	0.063233
1398	0.063250
1399	0.063283
1400	0.063300
1401	0.063317
1402	0.063333
1405	0.063350
1407	0.063383
1408	0.063400
1409	0.063417
1411	0.063433
1412	0.063450
1413	0.063467
1416	0.063483
1419	0.063500
1420	0.063533
1422	0.063567
1423	0.063617
1424	0.063650
1426	0.063667
1427	0.063717
1428	0.063733
1431	0.063750
1434	0.063767
1435	0.063817
1436	0.063850
1437	0.063867
1438	0.063900
1439	0.063917
1444	0.063933
1446	0.063967
1448	0.064000
1449	0.064033
1450	0.064067
1452	0.064083
1453	0.064117
1456	0.064133
1459	0.064167
1460	0.064183
1466	0.064200
1467	0.064217
1469	0.064283
1470	0.064300
1472	0.064333
1474	0.064350
1475	0.064383
1476	0.064400
1477	0.064417
1478	0.064483
1479	0.064533
1481	0.064550
1482	0.064567
1486	0.064600
1488	0.064617
1491	0.064650
1492	0.064667
1493	0.064700
1494	0.064733
1496	0.064767
1499	0.064817
1500	0.064833
1502	0.064850
1505	0.064867
1508	0.064900
1509	0.064917
1510	0.064933
1511	0.064983
1513	0.065000
1515	0.065033
1516	0.065050
1520	0.065100
1522	0.065117
1523	0.065150
1525	0.065183
1527	0.065217
1528	0.065233
1532	0.065250
1536	0.065267
1537	0.065300
1542	0.065333
1544	0.065367
1547	0.065400
1548	0.065433
1549	0.065467
1550	0.065483
1551	0.065500
1552	0.065517
1554	0.065533
1556	0.065567
1557	0.065600
1558	0.065617
1560	0.065633
1561	0.065650
1562	0.065683
1568	0.065717
1569	0.065733
1570	0.065750
1574	0.065767
1575	0.065800
1577	0.065817
1578	0.065833
1579	0.065850
1580	0.065867
1582	0.065883
1583	0.065917
1585	0.065933
1586	0.065967
1587	0.066033
1588	0.066083
1592	0.066100
1596	0.066133
1601	0.066150
1603	0.066183
1604	0.066217
1607	0.066233
1610	0.066250
1613	0.066267
1614	0.066300
1618	0.066317
1619	0.066333
1621	0.066350
1622	0.066383
1623	0.066400
1624	0.066417
1625	0.066433
1626	0.066483
1627	0.066500
1628	0.066517
1629	0.066533
1630	0.066583
1631	0.066600
1633	0.066617
1636	0.066633
1638	0.066650
1639	0.066667
1640	0.066700
1641	0.066717
1642	0.066733
1644	0.066767
1646	0.066800
1648	0.066833
1649	0.066850
1650	0.066867
1653	0.066883
1655	0.066933
1656	0.066983
1657	0.067017
1658	0.067033
1660	0.067050
1661	0.067067
1662	0.067083
1666	0.067133
1667	0.067150
1669	0.067167
1671	0.067183
1673	0.067217
1674	0.067233
1675	0.067283
1676	0.067300
1678	0.067350
1679	0.067367
1680	0.067383
1683	0.067400
1684	0.067417
1685	0.067433
1687	0.067467
1688	0.067500
1689	0.067517
1691	0.067533
1692	0.067567
1693	0.067583
1696	0.067600
1699	0.067617
1700	0.067633
1703	0.067650
1704	0.067683
1706	0.067717
1710	0.067767
1712	0.067800
1713	0.067817
1715	0.067833
1717	0.067850
1718	0.067867
1720	0.067900
1722	0.067917
1728	0.067933
1732	0.067950
1734	0.067967
1735	0.067983
1738	0.068017
1740	0.068033
1741	0.068067
1742	0.068100
1743	0.068133
1747	0.068150
1749	0.068200
1751	0.068250
1752	0.068283
1753	0.068317
1754	0.068367
1756	0.068400
1758	0.068417
1760	0.068433
1764	0.068450
1765	0.068467
1766	0.068500
1769	0.068517
1770	0.068533
1771	0.068550
1772	0.068567
1773	0.068600
1775	0.068617
1776	0.068633
1777	0.068667
1779	0.068683
1780	0.068700
1782	0.068717
1785	0.068733
1786	0.068750
1788	0.068767
1790	0.068800
1792	0.068817
1793	0.068850
1794	0.068867
1796	0.068900
1800	0.068917
1801	0.068950
1802	0.068967
1805	0.068983
1806	0.069000
1808	0.069017
1810	0.069050
1811	0.069067
1812	0.069083
1813	0.069117
1814	0.069133
1816	0.069150
1818	0.069167
1819	0.069183
1820	0.069217
1822	0.069250
1823	0.069267
1825	0.069283
1829	0.069317
1830	0.069350
1833	0.069367
1834	0.069383
1836	0.069417
1838	0.069433
1841	0.069450
1842	0.069467
1845	0.069483
1846	0.069500
1851	0.069567
1856	0.069600
1857	0.069617
1859	0.069667
1860	0.069683
1861	0.069700
1862	0.069767
1863	0.069783
1865	0.069817
1867	0.069833
1868	0.069867
1870	0.069933
1872	0.069950
1875	0.069967
1877	0.069983
1879	0.070000
1880	0.070017
1881	0.070033
1883	0.070050
1884	0.070083
1885	0.070117
1887	0.070150
1890	0.070183
1891	0.070200
1893	0.070217
1896	0.070233
1899	0.070267
1901	0.070283
1902	0.070300
1903	0.070317
1904	0.070367
1906	0.070400
1908	0.070417
1910	0.070450
1913	0.070483
1914	0.070500
1917	0.070517
1918	0.070550
1921	0.070617
1923	0.070633
1926	0.070650
1927	0.070683
1928	0.070700
1930	0.070717
1932	0.070750
1936	0.070800
1937	0.070817
1941	0.070833
1942	0.070850
1946	0.070867
1947	0.070883
1948	0.070900
1951	0.070933
1953	0.070950
1954	0.070967
1955	0.071000
1956	0.071033
1957	0.071050
1958	0.071067
1960	0.071083
1965	0.071117
1968	0.071133
1971	0.071167
1978	0.071183
1980	0.071200
1981	0.071217
1983	0.071267
1985	0.071300
1986	0.071317
1988	0.071333
1989	0.071350
1990	0.071367
1993	0.071383
1997	0.071417
2001	0.071433
2002	0.071467
2003	0.071483
2005	0.071500
2006	0.071533
2007	0.071550
2008	0.071583
2009	0.071600
2010	0.071617
2011	0.071633
2013	0.071650
2015	0.071667
2016	0.071717
2017	0.071733
2019	0.071767
2022	0.071783
2023	0.071800
2025	0.071817
2027	0.071850
2028	0.071867
2029	0.071883
2033	0.071900
2037	0.071917
2040	0.071950
2041	0.071967
2042	0.072017
2044	0.072050
2049	0.072100
2051	0.072133
2052	0.072183
2053	0.072200
2059	0.072233
2061	0.072267
2062	0.072283
2063	0.072317
2064	0.072350
2065	0.072367
2068	0.072383
2070	0.072400
2071	0.072417
2072	0.072433
2073	0.072467
2074	0.072517
2081	0.072533
2082	0.072550
2083	0.072583
2085	0.072600
2086	0.072617
2087	0.072633
2088	0.072650
2089	0.072683
2092	0.072700
2094	0.072733
2095	0.072750
2097	0.072767
2098	0.072783
2099	0.072800
2100	0.072817
2110	0.072850
2111	0.072883
2119	0.072900
2120	0.072933
2121	0.072967
2123	0.072983
2126	0.073000
2127	0.073017
2128	0.073050
2129	0.073067
2130	0.073083
2132	0.073117
2133	0.073167
2134	0.073200
2137	0.073217
2138	0.073250
2140	0.073267
2142	0.073283
2144	0.073300
2145	0.073350
2146	0.073367
2148	0.073383
2150	0.073400
2152	0.073450
2154	0.073467
2155	0.073500
2156	0.073550
2159	0.073567
