key	frequency
0	0.000867
1	0.001500
2	0.001767
3	0.002050
4	0.002433
5	0.002817
6	0.003050
7	0.003317
8	0.003450
9	0.003600
10	0.003683
11	0.003750
12	0.003883
13	0.004017
14	0.004117
15	0.004267
16	0.004350
17	0.004367
18	0.004500
19	0.004617
20	0.004700
21	0.004783
22	0.004867
23	0.004967
24	0.005050
25	0.005167
26	0.005283
27	0.005317
28	0.005400
29	0.005483
30	0.005650
31	0.005733
32	0.005883
33	0.006017
34	0.006167
35	0.006317
36	0.006367
37	0.006417
38	0.006517
39	0.006533
40	0.006600
41	0.006683
42	0.006783
43	0.006883
44	0.006917
45	0.006983
46	0.007017
47	0.007117
48	0.007183
49	0.007217
50	0.007250
51	0.007317
52	0.007383
53	0.007483
54	0.007567
55	0.007633
56	0.007700
57	0.007817
58	0.007917
59	0.008000
60	0.008017
61	0.008067
62	0.008083
63	0.008167
65	0.008183
66	0.008200
67	0.008233
68	0.008267
69	0.008283
70	0.008383
71	0.008433
72	0.008550
73	0.008600
75	0.008700
76	0.008783
77	0.008800
78	0.008883
79	0.008917
80	0.008967
81	0.009017
82	0.009067
83	0.009133
84	0.009233
86	0.009267
87	0.009283
88	0.009317
89	0.009400
90	0.009500
91	0.009517
92	0.009533
93	0.009567
94	0.009583
95	0.009600
96	0.009617
97	0.009733
98	0.009767
99	0.009783
100	0.009800
101	0.009850
102	0.009883
103	0.009917
105	0.009967
106	0.010033
107	0.010067
108	0.010083
109	0.010117
110	0.010167
111	0.010183
112	0.010233
113	0.010317
114	0.010350
115	0.010383
116	0.010433
117	0.010467
118	0.010517
120	0.010550
121	0.010583
122	0.010633
124	0.010683
125	0.010700
126	0.010717
127	0.010750
128	0.010767
129	0.010817
130	0.010850
131	0.010900
132	0.010917
133	0.010950
134	0.010967
135	0.011017
136	0.011067
137	0.011083
138	0.011100
139	0.011133
140	0.011167
141	0.011200
142	0.011233
143	0.011267
144	0.011283
145	0.011300
146	0.011317
147	0.011400
148	0.011450
149	0.011467
150	0.011500
151	0.011517
152	0.011533
154	0.011567
155	0.011600
158	0.011650
159	0.011683
160	0.011700
161	0.011733
162	0.011750
163	0.011783
164	0.011800
165	0.011850
166	0.011883
167	0.011917
168	0.011950
169	0.011967
170	0.012017
171	0.012033
172	0.012067
173	0.012117
174	0.012133
176	0.012150
177	0.012183
178	0.012217
179	0.012233
180	0.012267
182	0.012283
183	0.012317
184	0.012350
186	0.012383
187	0.012417
188	0.012483
189	0.012500
190	0.012533
192	0.012550
195	0.012567
197	0.012583
198	0.012617
199	0.012633
200	0.012650
201	0.012683
202	0.012733
203	0.012783
204	0.012800
205	0.012817
206	0.012867
208	0.012883
209	0.012950
210	0.012967
211	0.013017
212	0.013033
213	0.013100
214	0.013117
215	0.013150
216	0.013217
217	0.013283
218	0.013300
220	0.013317
222	0.013400
223	0.013433
224	0.013467
225	0.013500
227	0.013550
230	0.013617
231	0.013667
232	0.013683
233	0.013700
234	0.013733
236	0.013800
237	0.013817
238	0.013833
240	0.013867
242	0.013900
244	0.013933
245	0.013967
246	0.014067
247	0.014117
248	0.014133
249	0.014150
250	0.014183
251	0.014250
252	0.014267
253	0.014317
254	0.014333
255	0.014350
256	0.014383
258	0.014400
259	0.014467
261	0.014483
262	0.014533
263	0.014583
264	0.014617
268	0.014633
269	0.014667
270	0.014683
271	0.014717
273	0.014767
274	0.014850
275	0.014917
276	0.014950
278	0.014967
279	0.015033
280	0.015067
281	0.015083
282	0.015117
283	0.015150
284	0.015183
285	0.015200
286	0.015233
287	0.015283
288	0.015317
289	0.015350
292	0.015367
293	0.015383
294	0.015417
296	0.015433
297	0.015450
298	0.015483
299	0.015517
300	0.015533
301	0.015550
302	0.015583
303	0.015600
306	0.015617
308	0.015633
309	0.015700
310	0.015717
311	0.015733
312	0.015750
313	0.015767
315	0.015783
316	0.015850
317	0.015867
318	0.015883
319	0.015900
321	0.015950
322	0.015967
324	0.016000
325	0.016033
326	0.016050
327	0.016100
328	0.016167
329	0.016183
330	0.016217
331	0.016233
333	0.016267
334	0.016317
335	0.016383
337	0.016400
338	0.016417
340	0.016433
343	0.016467
344	0.016500
345	0.016550
346	0.016567
347	0.016617
348	0.016633
349	0.016667
352	0.016683
354	0.016733
355	0.016750
356	0.016767
358	0.016783
359	0.016850
361	0.016867
362	0.016933
363	0.016950
365	0.016967
367	0.017017
368	0.017033
369	0.017083
371	0.017100
372	0.017117
373	0.017133
375	0.017167
377	0.017183
379	0.017217
381	0.017250
383	0.017283
384	0.017300
387	0.017317
388	0.017333
389	0.017350
391	0.017367
392	0.017383
393	0.017400
395	0.017417
396	0.017450
397	0.017517
398	0.017583
399	0.017600
400	0.017633
402	0.017667
403	0.017733
405	0.017767
406	0.017800
408	0.017867
409	0.017883
411	0.017900
415	0.017917
418	0.017933
419	0.017983
420	0.018017
421	0.018050
422	0.018083
423	0.018100
424	0.018117
425	0.018133
426	0.018167
427	0.018183
429	0.018200
433	0.018250
434	0.018300
435	0.018317
436	0.018333
438	0.018350
440	0.018367
444	0.018400
446	0.018433
447	0.018450
448	0.018467
449	0.018550
451	0.018583
454	0.018617
457	0.018633
458	0.018667
459	0.018700
460	0.018717
463	0.018750
465	0.018783
466	0.018817
467	0.018833
468	0.018850
469	0.018867
470	0.018883
474	0.018917
475	0.018950
476	0.018967
477	0.018983
480	0.019017
481	0.019067
483	0.019083
486	0.019117
487	0.019133
489	0.019150
490	0.019167
492	0.019183
493	0.019200
494	0.019217
495	0.019233
501	0.019250
502	0.019267
504	0.019283
505	0.019333
507	0.019383
508	0.019417
509	0.019450
511	0.019467
512	0.019483
513	0.019500
514	0.019517
515	0.019550
516	0.019567
518	0.019600
519	0.019617
521	0.019650
522	0.019667
525	0.019683
527	0.019700
529	0.019767
531	0.019800
533	0.019817
534	0.019833
535	0.019850
537	0.019867
538	0.019900
541	0.019967
543	0.019983
546	0.020000
547	0.020033
549	0.020067
550	0.020083
551	0.020100
553	0.020133
554	0.020167
556	0.020183
557	0.020200
559	0.020217
562	0.020250
565	0.020283
568	0.020300
570	0.020367
571	0.020383
572	0.020400
573	0.020417
574	0.020467
575	0.020500
576	0.020533
584	0.020550
585	0.020583
586	0.020600
587	0.020617
588	0.020633
590	0.020667
591	0.020683
592	0.020700
595	0.020717
596	0.020750
597	0.020767
598	0.020800
599	0.020817
600	0.020833
602	0.020850
607	0.020900
609	0.020933
613	0.020950
614	0.020967
620	0.020983
621	0.021000
622	0.021017
625	0.021067
626	0.021083
629	0.021133
631	0.021167
633	0.021183
634	0.021200
636	0.021267
637	0.021283
638	0.021300
641	0.021317
646	0.021367
648	0.021383
649	0.021400
650	0.021433
651	0.021467
652	0.021500
654	0.021517
655	0.021533
656	0.021567
658	0.021583
662	0.021600
666	0.021633
669	0.021650
672	0.021683
673	0.021700
675	0.021717
676	0.021733
677	0.021767
679	0.021783
680	0.021850
682	0.021867
686	0.021883
687	0.021900
690	0.021917
691	0.021933
692	0.021950
694	0.021983
696	0.022017
697	0.022050
702	0.022067
703	0.022100
705	0.022133
707	0.022150
710	0.022167
713	0.022183
716	0.022217
718	0.022233
719	0.022250
720	0.022267
721	0.022283
723	0.022300
726	0.022333
728	0.022367
729	0.022400
731	0.022417
733	0.022467
734	0.022483
735	0.022500
736	0.022567
739	0.022583
740	0.022600
741	0.022633
742	0.022650
743	0.022683
744	0.022700
748	0.022750
749	0.022767
751	0.022783
752	0.022817
753	0.022833
755	0.022850
757	0.022883
758	0.022933
759	0.022950
761	0.022983
764	0.023017
767	0.023033
772	0.023067
773	0.023083
780	0.023100
782	0.023133
783	0.023150
788	0.023167
789	0.023183
790	0.023200
793	0.023217
794	0.023233
796	0.023250
797	0.023267
798	0.023283
801	0.023367
803	0.023383
809	0.023400
811	0.023417
816	0.023483
817	0.023517
818	0.023533
820	0.023567
821	0.023583
823	0.023600
825	0.023617
827	0.023633
828	0.023667
830	0.023700
831	0.023717
833	0.023750
835	0.023767
836	0.023817
837	0.023833
838	0.023900
841	0.023917
844	0.023933
849	0.023950
851	0.023983
852	0.024000
854	0.024033
856	0.024050
857	0.024067
858	0.024083
860	0.024100
863	0.024117
866	0.024133
873	0.024167
879	0.024183
880	0.024200
881	0.024250
886	0.024267
887	0.024283
892	0.024317
893	0.024333
897	0.024350
904	0.024367
909	0.024383
912	0.024400
913	0.024417
916	0.024467
917	0.024483
918	0.024500
920	0.024517
921	0.024533
923	0.024567
924	0.024600
925	0.024633
928	0.024667
930	0.024683
931	0.024717
936	0.024733
938	0.024750
939	0.024767
940	0.024783
941	0.024800
942	0.024817
943	0.024833
944	0.024850
948	0.024867
949	0.024900
952	0.024917
953	0.024933
956	0.024950
957	0.024967
958	0.024983
959	0.025000
961	0.025017
964	0.025033
965	0.025050
967	0.025067
968	0.025083
969	0.025100
970	0.025117
974	0.025133
975	0.025167
976	0.025200
977	0.025217
978	0.025250
979	0.025267
980	0.025283
981	0.025300
982	0.025317
985	0.025333
988	0.025383
989	0.025400
990	0.025433
991	0.025483
993	0.025500
994	0.025517
999	0.025550
1000	0.025583
1001	0.025600
1004	0.025617
1005	0.025633
1006	0.025650
1009	0.025667
1010	0.025683
1014	0.025700
1016	0.025717
1019	0.025733
1024	0.025750
1031	0.025767
1033	0.025800
1037	0.025817
1041	0.025833
1042	0.025850
1043	0.025867
1049	0.025917
1050	0.025933
1051	0.025950
1053	0.025967
1056	0.025983
1057	0.026000
1060	0.026033
1062	0.026050
1065	0.026067
1067	0.026117
1069	0.026133
1070	0.026150
1073	0.026167
1075	0.026183
1076	0.026200
1079	0.026217
1080	0.026233
1082	0.026267
1083	0.026300
1084	0.026317
1086	0.026333
1087	0.026350
1090	0.026383
1092	0.026400
1093	0.026417
1095	0.026433
1101	0.026450
1103	0.026467
1105	0.026483
1108	0.026500
1109	0.026517
1110	0.026533
1111	0.026550
1113	0.026567
1114	0.026583
1118	0.026600
1123	0.026617
1124	0.026633
1126	0.026650
1128	0.026667
1129	0.026683
1130	0.026733
1131	0.026783
1133	0.026800
1136	0.026817
1138	0.026833
1140	0.026850
1142	0.026867
1143	0.026900
1146	0.026933
1153	0.026950
1154	0.026967
1157	0.026983
1159	0.027000
1161	0.027017
1165	0.027033
1167	0.027050
1169	0.027083
1170	0.027100
1171	0.027117
1172	0.027133
1173	0.027150
1178	0.027183
1187	0.027200
1190	0.027217
1193	0.027250
1195	0.027283
1196	0.027300
1197	0.027333
1198	0.027350
1201	0.027383
1203	0.027400
1204	0.027433
1210	0.027467
1211	0.027483
1212	0.027500
1213	0.027517
1215	0.027533
1220	0.027567
1221	0.027583
1222	0.027600
1223	0.027617
1227	0.027650
1228	0.027667
1230	0.027683
1233	0.027717
1234	0.027733
1235	0.027750
1236	0.027783
1237	0.027800
1240	0.027817
1241	0.027833
1244	0.027850
1247	0.027867
1249	0.027883
1250	0.027917
1251	0.027950
1252	0.027967
1253	0.028000
1254	0.028050
1255	0.028067
1257	0.028083
1259	0.028100
1266	0.028133
1267	0.028150
1269	0.028167
1270	0.028183
1272	0.028200
1273	0.028217
1274	0.028267
1275	0.028300
1277	0.028317
1278	0.028350
1279	0.028367
1287	0.028400
1289	0.028417
1295	0.028433
1297	0.028450
1299	0.028467
1302	0.028483
1303	0.028500
1311	0.028517
1312	0.028533
1313	0.028550
1315	0.028567
1316	0.028583
1317	0.028600
1318	0.028617
1320	0.028633
1321	0.028650
1322	0.028667
1325	0.028700
1326	0.028717
1327	0.028733
1329	0.028750
1331	0.028783
1334	0.028800
1335	0.028833
1338	0.028850
1341	0.028867
1342	0.028883
1350	0.028900
1352	0.028917
1355	0.028933
1362	0.028950
1364	0.028967
1366	0.028983
1367	0.029000
1368	0.029017
1369	0.029033
1372	0.029050
1373	0.029083
1376	0.029100
1377	0.029150
1379	0.029167
1380	0.029183
1381	0.029200
1382	0.029233
1383	0.029250
1385	0.029267
1386	0.029300
1387	0.029317
1388	0.029333
1390	0.029350
1391	0.029383
1392	0.029400
1393	0.029433
1399	0.029483
1403	0.029500
1406	0.029517
1411	0.029533
1416	0.029550
1418	0.029600
1420	0.029617
1421	0.029633
1424	0.029650
1425	0.029667
1427	0.029683
1429	0.029700
1430	0.029733
1433	0.029767
1434	0.029783
1435	0.029800
1438	0.029850
1439	0.029867
1441	0.029883
1442	0.029900
1448	0.029917
1452	0.029967
1453	0.029983
1456	0.030000
1459	0.030017
1460	0.030050
1463	0.030067
1464	0.030117
1465	0.030133
1466	0.030150
1467	0.030167
1472	0.030183
1473	0.030200
1476	0.030217
1477	0.030267
1478	0.030283
1480	0.030300
1483	0.030317
1484	0.030333
1487	0.030350
1488	0.030367
1492	0.030383
1494	0.030417
1497	0.030433
1500	0.030450
1503	0.030467
1509	0.030483
1511	0.030500
1516	0.030517
1519	0.030533
1522	0.030550
1523	0.030583
1525	0.030600
1527	0.030617
1528	0.030633
1531	0.030650
1539	0.030667
1540	0.030683
1541	0.030700
1543	0.030717
1544	0.030750
1545	0.030767
1547	0.030783
1548	0.030800
1553	0.030817
1554	0.030833
1557	0.030850
1558	0.030867
1559	0.030883
1569	0.030900
1572	0.030917
1574	0.030933
1578	0.030950
1579	0.030967
1582	0.031000
1583	0.031017
1586	0.031033
1587	0.031050
1589	0.031083
1590	0.031100
1594	0.031117
1604	0.031150
1606	0.031167
1609	0.031183
1611	0.031200
1615	0.031283
1616	0.031300
1621	0.031317
1623	0.031333
1626	0.031350
1628	0.031383
1630	0.031400
1631	0.031417
1632	0.031433
1639	0.031450
1640	0.031483
1641	0.031500
1642	0.031517
1644	0.031533
1653	0.031550
1658	0.031567
1660	0.031583
1661	0.031600
1664	0.031617
1668	0.031633
1670	0.031650
1672	0.031683
1673	0.031700
1674	0.031717
1677	0.031733
1682	0.031750
1684	0.031783
1687	0.031800
1697	0.031833
1698	0.031850
1703	0.031867
1704	0.031883
1705	0.031900
1706	0.031917
1708	0.031933
1710	0.031950
1711	0.031967
1715	0.031983
1716	0.032000
1717	0.032033
1718	0.032050
1725	0.032067
1738	0.032083
1742	0.032100
1745	0.032117
1746	0.032150
1747	0.032167
1749	0.032183
1750	0.032200
1752	0.032233
1754	0.032250
1755	0.032267
1757	0.032283
1758	0.032300
1762	0.032317
1764	0.032333
1766	0.032350
1770	0.032367
1773	0.032383
1777	0.032417
1787	0.032433
1788	0.032450
1790	0.032467
1791	0.032500
1792	0.032517
1794	0.032533
1796	0.032550
1797	0.032567
1800	0.032583
1803	0.032617
1808	0.032633
1810	0.032650
1812	0.032683
1815	0.032700
1823	0.032717
1829	0.032733
1831	0.032783
1832	0.032800
1835	0.032817
1837	0.032833
1839	0.032867
1842	0.032883
1849	0.032900
1850	0.032917
1857	0.032933
1859	0.032967
1863	0.032983
1865	0.033000
1871	0.033033
1874	0.033050
1880	0.033067
1887	0.033083
1888	0.033117
1891	0.033133
1894	0.033150
1896	0.033167
1897	0.033183
1898	0.033217
1901	0.033233
1902	0.033250
1904	0.033267
1906	0.033283
1908	0.033300
1909	0.033350
1910	0.033367
1911	0.033400
1912	0.033417
1914	0.033433
1918	0.033450
1920	0.033467
1922	0.033483
1925	0.033500
1926	0.033533
1932	0.033550
1936	0.033567
1937	0.033583
1941	0.033600
1945	0.033617
1947	0.033633
1952	0.033650
1954	0.033667
1955	0.033700
1956	0.033733
1957	0.033750
1966	0.033767
1970	0.033800
1975	0.033817
1978	0.033833
1979	0.033850
1981	0.033883
1983	0.033950
1984	0.033967
1987	0.033983
1988	0.034000
1990	0.034033
1991	0.034050
1998	0.034067
2000	0.034083
2015	0.034100
2016	0.034117
2021	0.034133
2028	0.034150
2030	0.034167
2034	0.034183
2037	0.034200
2043	0.034217
2044	0.034233
2048	0.034250
2052	0.034267
2054	0.034283
2055	0.034300
2057	0.034333
2058	0.034350
2059	0.034367
2066	0.034383
2067	0.034417
2077	0.034433
2078	0.034450
2084	0.034483
2091	0.034500
2094	0.034517
2095	0.034533
2096	0.034567
2099	0.034600
2100	0.034617
2103	0.034633
2106	0.034650
2110	0.034667
2115	0.034700
2116	0.034717
2122	0.034733
2126	0.034767
2128	0.034783
2132	0.034800
2135	0.034817
2137	0.034833
2140	0.034850
2141	0.034867
2143	0.034900
2146	0.034917
2149	0.034950
2151	0.034967
2154	0.034983
2156	0.035000
2157	0.035017
2158	0.035033
2172	0.035050
2175	0.035067
2176	0.035083
2177	0.035100
2180	0.035117
2181	0.035133
2183	0.035150
2184	0.035167
2194	0.035183
2200	0.035200
2201	0.035217
2204	0.035233
2207	0.035250
2210	0.035267
2211	0.035283
2213	0.035300
2214	0.035317
2215	0.035350
2218	0.035367
2220	0.035400
2222	0.035417
2223	0.035433
2231	0.035450
2238	0.035467
2240	0.035483
2242	0.035517
2244	0.035533
2254	0.035550
2255	0.035567
2259	0.035583
2260	0.035600
2261	0.035633
2264	0.035667
2267	0.035683
2270	0.035717
2271	0.035750
2272	0.035767
2273	0.035800
2283	0.035817
2292	0.035833
2294	0.035850
2296	0.035900
2300	0.035917
2306	0.035933
2308	0.035950
2311	0.035967
2319	0.035983
2321	0.036017
2322	0.036033
2323	0.036050
2326	0.036067
2329	0.036083
2330	0.036100
2335	0.036117
2343	0.036133
2344	0.036150
2347	0.036183
2348	0.036200
2349	0.036217
2354	0.036233
2361	0.036250
2366	0.036267
2367	0.036283
2368	0.036300
2374	0.036367
2378	0.036383
2381	0.036400
2387	0.036417
2389	0.036433
2399	0.036450
2401	0.036467
2403	0.036483
2407	0.036500
2420	0.036533
2421	0.036550
2428	0.036567
2430	0.036583
2433	0.036617
2438	0.036633
2439	0.036667
2443	0.036683
2456	0.036700
2459	0.036717
2463	0.036733
2466	0.036767
2473	0.036783
2476	0.036800
2481	0.036817
2485	0.036833
2486	0.036850
2487	0.036867
2489	0.036883
2496	0.036900
2498	0.036917
2499	0.036933
2501	0.036950
2502	0.036983
2506	0.037000
2507	0.037033
2511	0.037050
2517	0.037067
2519	0.037083
2525	0.037100
2527	0.037117
2530	0.037133
2532	0.037150
2533	0.037167
2538	0.037200
2541	0.037217
2544	0.037233
2548	0.037250
2552	0.037267
2553	0.037283
2554	0.037300
2556	0.037333
2557	0.037350
2560	0.037367
2570	0.037383
2572	0.037400
2574	0.037417
2575	0.037433
2576	0.037450
2578	0.037467
2579	0.037483
2582	0.037500
2586	0.037517
2587	0.037533
2588	0.037550
2591	0.037567
2594	0.037583
2595	0.037600
2602	0.037617
2607	0.037633
2610	0.037650
2612	0.037700
2618	0.037717
2621	0.037733
2625	0.037750
2626	0.037767
2628	0.037783
2633	0.037800
2638	0.037817
2640	0.037833
2647	0.037850
2655	0.037883
2666	0.037900
2669	0.037917
2674	0.037933
2677	0.037950
2678	0.037967
2687	0.037983
2688	0.038000
2702	0.038033
2703	0.038067
2704	0.038100
2706	0.038133
2712	0.038150
2718	0.038167
2721	0.038183
2723	0.038200
2728	0.038217
2734	0.038233
2735	0.038250
2737	0.038267
2738	0.038283
2741	0.038300
2751	0.038317
2753	0.038333
2755	0.038350
2769	0.038367
2771	0.038383
2774	0.038400
2775	0.038417
2776	0.038433
2777	0.038450
2784	0.038467
2787	0.038483
2790	0.038500
2795	0.038533
2802	0.038550
2804	0.038567
2810	0.038583
2811	0.038600
2820	0.038617
2828	0.038633
2830	0.038650
2834	0.038683
2839	0.038717
2845	0.038733
2846	0.038750
2847	0.038783
2850	0.038800
2859	0.038817
2860	0.038850
2864	0.038867
2865	0.038883
2866	0.038900
2867	0.038917
2873	0.038933
2880	0.038967
2882	0.039000
2883	0.039017
2889	0.039050
2891	0.039067
2892	0.039083
2897	0.039117
2899	0.039133
2900	0.039167
2906	0.039183
2913	0.039200
2916	0.039217
2921	0.039233
2926	0.039267
2929	0.039283
2931	0.039300
2932	0.039317
2936	0.039333
2939	0.039350
2941	0.039367
2943	0.039383
2944	0.039400
2946	0.039417
2949	0.039433
2951	0.039450
2953	0.039467
2955	0.039483
2959	0.039500
2962	0.039517
2964	0.039550
2966	0.039567
2969	0.039583
2975	0.039600
2976	0.039617
2980	0.039650
2986	0.039667
2991	0.039683
2993	0.039700
2997	0.039717
3000	0.039733
3006	0.039750
3008	0.039767
3015	0.039783
3021	0.039800
3022	0.039817
3029	0.039833
3033	0.039850
3035	0.039867
3036	0.039883
3039	0.039900
3043	0.039917
3046	0.039933
3049	0.039950
3050	0.039967
3055	0.039983
3058	0.040000
3061	0.040017
3080	0.040033
3085	0.040050
3086	0.040100
3088	0.040117
3089	0.040133
3097	0.040167
3099	0.040183
3100	0.040200
3103	0.040233
3113	0.040250
3114	0.040283
3117	0.040300
3122	0.040317
3129	0.040333
3130	0.040350
3133	0.040367
3139	0.040383
3142	0.040400
3146	0.040417
3151	0.040433
3152	0.040450
3154	0.040467
3156	0.040483
3158	0.040500
3160	0.040517
3166	0.040533
3167	0.040550
3168	0.040567
3169	0.040583
3170	0.040600
3175	0.040617
3176	0.040650
3181	0.040667
3182	0.040683
3187	0.040700
3194	0.040717
3201	0.040733
3206	0.040750
3216	0.040767
3221	0.040800
3223	0.040817
3224	0.040833
3231	0.040850
3232	0.040867
3235	0.040883
3238	0.040900
3242	0.040917
3245	0.040933
3246	0.040950
3250	0.040967
3263	0.040983
3264	0.041000
3274	0.041017
3277	0.041033
3289	0.041050
3295	0.041067
3303	0.041083
3304	0.041117
3310	0.041133
3311	0.041150
3314	0.041167
3325	0.041183
3328	0.041200
3331	0.041217
3332	0.041233
3334	0.041250
3337	0.041267
3338	0.041283
3349	0.041300
3350	0.041317
3352	0.041333
3359	0.041350
3363	0.041367
3371	0.041383
3374	0.041400
3375	0.041417
3386	0.041433
3388	0.041450
3391	0.041467
3394	0.041500
3395	0.041517
3398	0.041533
3409	0.041550
3423	0.041583
3424	0.041600
3426	0.041617
3431	0.041633
3437	0.041667
3439	0.041683
3451	0.041700
3465	0.041717
3471	0.041750
3474	0.041767
3480	0.041783
3483	0.041800
3485	0.041817
3487	0.041833
3489	0.041850
3494	0.041867
3499	0.041883
3500	0.041900
3508	0.041917
3509	0.041950
3512	0.041967
3514	0.041983
3517	0.042000
3525	0.042017
3528	0.042033
3531	0.042050
3535	0.042067
3541	0.042083
3543	0.042100
3544	0.042117
3545	0.042150
3546	0.042167
3547	0.042183
3548	0.042200
3550	0.042233
3551	0.042250
