key	frequency
0	0.109600
1	0.158900
2	0.199600
3	0.228400
4	0.250600
5	0.266400
6	0.278000
7	0.291000
8	0.299900
9	0.309000
10	0.318800
11	0.325900
12	0.332200
13	0.338900
14	0.344800
15	0.350300
16	0.356000
17	0.360900
18	0.364300
19	0.368900
20	0.373400
21	0.377700
22	0.381600
23	0.385400
24	0.388500
25	0.390700
26	0.393400
27	0.396400
28	0.398000
29	0.400300
30	0.402300
31	0.404700
32	0.407800
33	0.409700
34	0.411500
35	0.413700
36	0.415900
37	0.417400
38	0.419600
39	0.421300
40	0.423200
41	0.424300
42	0.425600
43	0.427000
44	0.428200
45	0.429600
46	0.431100
47	0.432300
48	0.434800
49	0.436300
50	0.438400
51	0.439500
52	0.441200
53	0.442500
54	0.443600
55	0.445100
56	0.446100
57	0.447000
58	0.448300
59	0.449300
60	0.450600
61	0.451900
62	0.453000
63	0.454000
64	0.455200
65	0.456600
66	0.457600
67	0.458200
68	0.459200
69	0.459800
70	0.460900
71	0.461700
72	0.462200
73	0.462900
74	0.464100
75	0.464600
76	0.465100
77	0.466500
78	0.467500
79	0.469000
80	0.469800
81	0.470700
82	0.471600
83	0.472200
84	0.472800
85	0.473400
86	0.474300
87	0.475300
88	0.476200
89	0.477000
90	0.477800
91	0.478500
92	0.479300
93	0.480300
94	0.480800
95	0.481200
96	0.482100
97	0.482800
98	0.483300
99	0.483900
100	0.484900
101	0.485600
102	0.486300
103	0.487600
104	0.488100
105	0.488600
106	0.489000
107	0.489800
108	0.490400
109	0.491000
110	0.491200
111	0.492000
112	0.492800
113	0.493700
114	0.494300
115	0.495000
116	0.496300
117	0.496600
118	0.497100
119	0.497600
120	0.498200
121	0.498700
122	0.499300
123	0.499800
124	0.501100
125	0.501400
126	0.502100
127	0.502600
128	0.503000
129	0.503400
130	0.503700
131	0.503800
132	0.504500
133	0.505000
134	0.506000
135	0.506600
136	0.506700
137	0.506800
138	0.507100
139	0.507700
140	0.508100
141	0.508300
142	0.509100
143	0.509700
144	0.510300
145	0.510700
146	0.511100
147	0.511400
148	0.512200
149	0.512800
150	0.513100
151	0.513400
152	0.513700
153	0.514000
154	0.514700
155	0.515100
156	0.515500
157	0.515900
158	0.516000
159	0.516200
160	0.516700
161	0.517200
162	0.517400
163	0.517800
164	0.518200
165	0.518600
166	0.519000
167	0.519400
168	0.519900
169	0.520300
170	0.520600
171	0.520800
172	0.521200
173	0.521400
174	0.521900
175	0.522300
176	0.522500
177	0.522900
178	0.523300
179	0.523900
180	0.524500
181	0.525000
182	0.525500
183	0.525700
184	0.526000
185	0.526200
186	0.526800
187	0.527400
188	0.528100
189	0.528500
190	0.528700
191	0.529000
193	0.529100
194	0.529400
195	0.530000
196	0.530200
197	0.530300
198	0.530500
200	0.530900
201	0.531000
202	0.531600
203	0.532100
204	0.532300
205	0.532400
206	0.532700
207	0.533000
208	0.533700
209	0.534000
210	0.534100
211	0.534200
212	0.534500
213	0.534900
214	0.535300
215	0.535700
216	0.536100
217	0.536300
218	0.536500
220	0.536800
222	0.537000
223	0.537400
224	0.537600
225	0.537700
226	0.538200
227	0.538300
228	0.538700
229	0.539000
230	0.539200
231	0.539400
232	0.539700
233	0.539900
234	0.540100
236	0.540300
237	0.540700
238	0.540900
239	0.541300
240	0.541500
241	0.541800
242	0.542200
243	0.542500
244	0.543100
245	0.543400
246	0.543600
247	0.543800
248	0.544200
249	0.544400
250	0.544500
251	0.544700
252	0.544900
253	0.545100
254	0.545400
255	0.545800
256	0.546100
257	0.546300
258	0.546500
259	0.546800
260	0.547000
261	0.547400
262	0.547700
263	0.548100
264	0.548500
265	0.548700
267	0.549000
268	0.549200
269	0.549300
270	0.549700
271	0.549800
272	0.550100
273	0.550300
274	0.550600
275	0.550800
276	0.551200
277	0.551300
278	0.551600
279	0.551900
280	0.552300
281	0.552500
282	0.552600
283	0.552900
284	0.553200
285	0.553500
286	0.553800
287	0.554100
288	0.554300
289	0.554500
290	0.554800
291	0.555100
292	0.555200
293	0.555600
294	0.555700
295	0.555900
296	0.556200
297	0.556400
298	0.556500
300	0.556700
301	0.557100
302	0.557300
303	0.557800
304	0.558000
305	0.558100
307	0.558300
308	0.558400
309	0.558700
310	0.559200
312	0.559400
315	0.559600
316	0.559700
317	0.559800
320	0.559900
321	0.560000
322	0.560200
323	0.560700
324	0.561200
325	0.561500
326	0.561800
327	0.562000
328	0.562200
332	0.562400
333	0.562800
335	0.563300
336	0.563400
338	0.563600
339	0.563800
340	0.564000
341	0.564200
342	0.564500
343	0.564600
344	0.564800
345	0.565000
347	0.565100
348	0.565400
349	0.565700
350	0.566000
351	0.566100
352	0.566300
353	0.566400
355	0.566600
356	0.566700
357	0.567000
358	0.567100
359	0.567300
360	0.567600
361	0.567900
362	0.568000
363	0.568200
365	0.568600
367	0.568700
368	0.569000
369	0.569100
370	0.569200
371	0.569400
372	0.569500
373	0.569700
377	0.569900
378	0.570000
380	0.570200
383	0.570300
384	0.570800
385	0.570900
386	0.571400
387	0.571800
390	0.571900
393	0.572000
394	0.572200
398	0.572400
400	0.572500
401	0.572600
403	0.572700
404	0.573000
406	0.573300
407	0.573400
408	0.573500
409	0.573700
410	0.573900
411	0.574500
413	0.574600
414	0.574700
417	0.574800
418	0.575100
419	0.575300
420	0.575500
421	0.575700
422	0.576000
424	0.576200
425	0.576300
427	0.576400
428	0.576700
429	0.576800
430	0.576900
432	0.577000
433	0.577200
434	0.577300
435	0.577500
436	0.577900
438	0.578100
439	0.578400
440	0.578500
442	0.578700
443	0.579000
444	0.579100
445	0.579300
449	0.579600
450	0.579700
452	0.579800
453	0.580300
454	0.580400
455	0.580600
456	0.580900
460	0.581100
461	0.581200
464	0.581300
465	0.581400
466	0.581700
467	0.582000
468	0.582100
469	0.582200
470	0.582700
471	0.582800
472	0.583000
473	0.583100
474	0.583300
475	0.583400
476	0.583500
478	0.583700
480	0.583800
481	0.583900
483	0.584000
484	0.584100
485	0.584200
488	0.584600
489	0.584800
490	0.585200
491	0.585300
492	0.585400
493	0.585500
494	0.585700
495	0.586100
496	0.586300
498	0.586500
501	0.586700
502	0.586900
503	0.587000
504	0.587400
505	0.587600
508	0.587700
511	0.587900
513	0.588100
514	0.588200
515	0.588300
517	0.588500
518	0.588600
520	0.588700
521	0.588800
522	0.589100
525	0.589400
526	0.589500
527	0.589600
529	0.589800
531	0.589900
532	0.590100
538	0.590400
539	0.590500
540	0.590800
541	0.590900
543	0.591200
544	0.591300
546	0.591400
547	0.591500
548	0.591600
549	0.591800
552	0.591900
553	0.592100
554	0.592200
558	0.592500
561	0.592600
562	0.593000
563	0.593500
566	0.593600
567	0.593700
569	0.593900
571	0.594000
575	0.594100
576	0.594200
579	0.594300
580	0.594500
582	0.594700
584	0.594900
586	0.595100
587	0.595200
588	0.595300
590	0.595400
591	0.595600
592	0.595800
600	0.595900
601	0.596000
602	0.596100
603	0.596300
604	0.596400
606	0.596500
607	0.596600
608	0.596700
609	0.596900
611	0.597000
612	0.597100
613	0.597300
617	0.597400
618	0.597500
619	0.597600
620	0.597700
623	0.597800
625	0.597900
626	0.598000
628	0.598100
629	0.598200
630	0.598300
631	0.598400
634	0.598500
637	0.598700
638	0.598900
639	0.599100
640	0.599300
641	0.599400
642	0.599500
646	0.599700
647	0.599800
648	0.599900
655	0.600000
656	0.600100
658	0.600300
659	0.600400
662	0.600600
663	0.600900
666	0.601100
667	0.601400
670	0.601500
672	0.601700
673	0.601800
675	0.602100
678	0.602200
680	0.602400
681	0.602500
683	0.602600
685	0.602700
686	0.602900
689	0.603000
690	0.603100
692	0.603200
693	0.603400
697	0.603500
699	0.603700
700	0.603900
701	0.604100
702	0.604500
703	0.604600
704	0.604700
705	0.605000
706	0.605200
708	0.605300
709	0.605500
710	0.605600
711	0.605800
713	0.606000
714	0.606100
721	0.606200
722	0.606500
725	0.606700
726	0.606900
727	0.607100
728	0.607200
729	0.607300
730	0.607400
732	0.607500
733	0.607700
734	0.607800
735	0.608000
737	0.608100
738	0.608300
740	0.608400
741	0.608600
742	0.608700
743	0.608800
745	0.609100
746	0.609300
748	0.609500
750	0.609600
753	0.609700
755	0.609800
756	0.609900
757	0.610000
758	0.610100
759	0.610300
773	0.610500
776	0.610600
779	0.610700
780	0.610800
781	0.610900
782	0.611000
791	0.611100
795	0.611200
799	0.611400
802	0.611600
806	0.611700
807	0.611800
809	0.611900
810	0.612000
811	0.612100
813	0.612200
818	0.612400
824	0.612600
826	0.612700
828	0.612800
829	0.612900
831	0.613000
834	0.613200
836	0.613300
837	0.613400
838	0.613700
842	0.613800
843	0.613900
846	0.614000
847	0.614100
855	0.614300
857	0.614400
858	0.614500
860	0.614700
861	0.614800
862	0.614900
863	0.615000
864	0.615100
865	0.615200
868	0.615300
869	0.615500
871	0.615600
872	0.615700
882	0.615800
884	0.616000
886	0.616100
888	0.616200
893	0.616300
894	0.616400
895	0.616500
898	0.616600
900	0.616700
901	0.616800
902	0.616900
903	0.617000
908	0.617200
911	0.617300
913	0.617500
916	0.617700
917	0.617900
918	0.618000
920	0.618200
921	0.618500
922	0.618600
925	0.618700
928	0.618900
929	0.619000
930	0.619100
931	0.619200
936	0.619400
937	0.619500
939	0.619700
941	0.619800
942	0.619900
944	0.620100
949	0.620200
951	0.620300
953	0.620400
954	0.620600
957	0.620700
958	0.620800
960	0.621000
962	0.621200
967	0.621400
971	0.621500
972	0.621700
973	0.621900
975	0.622000
976	0.622100
982	0.622200
985	0.622300
987	0.622500
989	0.622600
991	0.622800
996	0.622900
999	0.623100
1000	0.623200
1003	0.623300
1005	0.623500
1006	0.623600
1008	0.623700
1009	0.623900
1014	0.624000
1015	0.624100
1016	0.624200
1017	0.624300
1025	0.624400
1027	0.624500
1028	0.624600
1031	0.624700
1033	0.624800
1035	0.624900
1040	0.625000
1041	0.625100
1046	0.625200
1048	0.625300
1050	0.625400
1051	0.625500
1053	0.625700
1054	0.625900
1067	0.626000
1068	0.626100
1070	0.626300
1074	0.626500
1075	0.626600
1076	0.626700
1077	0.626900
1081	0.627000
1083	0.627100
1086	0.627200
1087	0.627300
1088	0.627400
1090	0.627500
1093	0.627600
1094	0.627800
1095	0.627900
1096	0.628000
1097	0.628100
1098	0.628200
1099	0.628500
1104	0.628600
1110	0.628800
1112	0.628900
1115	0.629000
1119	0.629100
1120	0.629300
1127	0.629500
1132	0.629600
1133	0.629700
1137	0.629900
1139	0.630000
1141	0.630200
1143	0.630300
1146	0.630400
1147	0.630600
1149	0.630800
1150	0.630900
1151	0.631100
1152	0.631200
1157	0.631500
1158	0.631600
1159	0.631700
1170	0.631800
1173	0.632000
1174	0.632100
1178	0.632300
1180	0.632400
1184	0.632600
1187	0.632700
1188	0.632900
1189	0.633100
1190	0.633200
1195	0.633500
1201	0.633700
1204	0.633800
1206	0.633900
1207	0.634000
1220	0.634100
1222	0.634200
1224	0.634300
1225	0.634400
1229	0.634600
1230	0.634800
1231	0.634900
1233	0.635000
1238	0.635200
1240	0.635300
1242	0.635500
1250	0.635600
1251	0.635700
1253	0.635800
1262	0.636000
1263	0.636200
1265	0.636300
1266	0.636400
1269	0.636500
1270	0.636600
1272	0.636700
1276	0.636900
1280	0.637000
1282	0.637200
1283	0.637300
1284	0.637400
1291	0.637500
1293	0.637600
1295	0.637700
1300	0.637800
1301	0.638000
1307	0.638100
1313	0.638200
1317	0.638300
1323	0.638400
1334	0.638500
1337	0.638600
1338	0.638700
1340	0.638800
1349	0.639000
1354	0.639100
1355	0.639300
1356	0.639400
1359	0.639600
1360	0.639700
1364	0.639800
1370	0.639900
1373	0.640100
1374	0.640300
1380	0.640500
1382	0.640600
1386	0.640700
1388	0.640900
1390	0.641000
1391	0.641100
1397	0.641200
1398	0.641300
1399	0.641500
1405	0.641600
1407	0.641700
1420	0.641800
1422	0.641900
1428	0.642000
1430	0.642100
1435	0.642200
1436	0.642400
1438	0.642500
1439	0.642600
1443	0.642700
1450	0.642800
1451	0.642900
1452	0.643000
1455	0.643200
1459	0.643400
1462	0.643500
1464	0.643700
1466	0.643800
1472	0.643900
1474	0.644000
1479	0.644100
1480	0.644200
1481	0.644300
1483	0.644400
1486	0.644500
1491	0.644700
1499	0.644800
1503	0.644900
1509	0.645000
1512	0.645100
1517	0.645200
1518	0.645300
1522	0.645400
1524	0.645600
1525	0.645700
1526	0.645800
1530	0.645900
1532	0.646100
1533	0.646200
1540	0.646300
1543	0.646400
1544	0.646500
1545	0.646700
1552	0.646800
1554	0.646900
1568	0.647000
1570	0.647100
1572	0.647200
1573	0.647300
1575	0.647600
1579	0.647700
1581	0.647800
1583	0.647900
1588	0.648000
1597	0.648100
1598	0.648200
1602	0.648400
1618	0.648500
1620	0.648600
1621	0.648700
1624	0.648800
1631	0.648900
1636	0.649100
1638	0.649200
1643	0.649300
1658	0.649400
1660	0.649500
1661	0.649700
1663	0.649800
1672	0.649900
1675	0.650000
1684	0.650200
1687	0.650300
1705	0.650400
1709	0.650500
1716	0.650600
1717	0.650700
1722	0.650800
1725	0.650900
1726	0.651000
1731	0.651100
1732	0.651200
1742	0.651300
1746	0.651500
1758	0.651600
1759	0.651700
1765	0.651800
1770	0.652000
1778	0.652100
1779	0.652200
1784	0.652300
1786	0.652400
1791	0.652500
1792	0.652600
1793	0.652700
1794	0.652800
1796	0.652900
1804	0.653000
1808	0.653100
1811	0.653200
1826	0.653300
1837	0.653400
1842	0.653500
1848	0.653600
1855	0.653700
1858	0.653800
1860	0.653900
1865	0.654100
1872	0.654200
1876	0.654300
1879	0.654400
1883	0.654500
1885	0.654700
1895	0.654800
1907	0.654900
1914	0.655100
1919	0.655300
1924	0.655400
1927	0.655500
1928	0.655600
1932	0.655700
1933	0.655800
1937	0.655900
1941	0.656000
1943	0.656100
1944	0.656200
1964	0.656300
1965	0.656400
1966	0.656500
1970	0.656700
1974	0.656800
1975	0.657000
1982	0.657100
1985	0.657200
1986	0.657300
1988	0.657400
1991	0.657500
1997	0.657600
1999	0.657700
2002	0.657900
2014	0.658000
2021	0.658100
2043	0.658200
2046	0.658300
2048	0.658400
2055	0.658500
2056	0.658600
2058	0.658700
2064	0.658800
2065	0.658900
2089	0.659000
2090	0.659100
2091	0.659200
2093	0.659300
2095	0.659500
2096	0.659600
2099	0.659700
2133	0.659800
2134	0.660000
2139	0.660100
2144	0.660200
2163	0.660300
2176	0.660400
2179	0.660500
2181	0.660600
2183	0.660700
2191	0.660800
2199	0.660900
2203	0.661100
2205	0.661300
2208	0.661400
2210	0.661500
2212	0.661600
2215	0.661700
2216	0.661800
2221	0.661900
2222	0.662000
2228	0.662100
2229	0.662300
2232	0.662500
2238	0.662600
2246	0.662700
2247	0.662800
2254	0.662900
2265	0.663000
2268	0.663100
2272	0.663200
2273	0.663300
2279	0.663400
2285	0.663600
2290	0.663700
2296	0.663800
2297	0.663900
2304	0.664000
2309	0.664100
2311	0.664200
2312	0.664300
2318	0.664500
2321	0.664600
2322	0.664700
2331	0.664800
2333	0.664900
2336	0.665000
2340	0.665200
2341	0.665300
2342	0.665400
2347	0.665500
2348	0.665600
2349	0.665700
2352	0.665800
2368	0.665900
2369	0.666000
2370	0.666100
2379	0.666200
2381	0.666400
2383	0.666500
2394	0.666700
2419	0.666800
2426	0.666900
2429	0.667000
2430	0.667100
2431	0.667200
2437	0.667300
2442	0.667400
2444	0.667500
2446	0.667600
2451	0.667700
2452	0.667800
2454	0.667900
2455	0.668000
2458	0.668100
2459	0.668200
2470	0.668300
2480	0.668400
2486	0.668500
2517	0.668600
2520	0.668700
2540	0.668800
2541	0.669000
2542	0.669200
2544	0.669300
2545	0.669400
2548	0.669500
2553	0.669700
2557	0.669800
2558	0.670000
2562	0.670100
2564	0.670200
2567	0.670300
2573	0.670400
2577	0.670500
2588	0.670600
2598	0.670800
2610	0.670900
2619	0.671000
2624	0.671100
2626	0.671200
2639	0.671300
2646	0.671400
2648	0.671500
2656	0.671600
2660	0.671700
2665	0.671800
2679	0.671900
2681	0.672000
2683	0.672100
2685	0.672200
2690	0.672300
2692	0.672400
2704	0.672600
2708	0.672800
2711	0.672900
2729	0.673000
2731	0.673200
2732	0.673400
2734	0.673500
2736	0.673600
2744	0.673700
2749	0.673800
2762	0.673900
2765	0.674000
2771	0.674100
2775	0.674200
2777	0.674300
2779	0.674400
2790	0.674500
2793	0.674600
2805	0.674700
2806	0.674900
2810	0.675000
2814	0.675100
2816	0.675200
2828	0.675300
2874	0.675400
2876	0.675600
2883	0.675700
2889	0.675800
2890	0.675900
2903	0.676000
2904	0.676100
2909	0.676200
2918	0.676300
2946	0.676400
2959	0.676500
2967	0.676600
2973	0.676700
2974	0.676800
2996	0.676900
2999	0.677000
3002	0.677200
3014	0.677300
3018	0.677400
3023	0.677500
3032	0.677600
3034	0.677700
3044	0.677800
3050	0.677900
3056	0.678000
3059	0.678100
3079	0.678200
3085	0.678300
3096	0.678400
3107	0.678500
3110	0.678600
3119	0.678700
3126	0.678800
3129	0.678900
3137	0.679000
3138	0.679100
3139	0.679200
3140	0.679300
3149	0.679400
3153	0.679500
3157	0.679600
3159	0.679700
3163	0.679800
3164	0.679900
3165	0.680000
3166	0.680100
3168	0.680200
3177	0.680300
3181	0.680400
3185	0.680500
3197	0.680600
3199	0.680700
3201	0.680800
3209	0.680900
3221	0.681000
3232	0.681100
3258	0.681200
3260	0.681300
3266	0.681400
3269	0.681500
3271	0.681600
3276	0.681700
3280	0.681800
3285	0.681900
3288	0.682000
3289	0.682100
3293	0.682200
3298	0.682300
3301	0.682400
3305	0.682500
3308	0.682600
3312	0.682700
3318	0.682800
3320	0.682900
3326	0.683000
3329	0.683100
3330	0.683200
3345	0.683400
3346	0.683600
3351	0.683700
3352	0.683900
3360	0.684000
3364	0.684100
3375	0.684200
3377	0.684300
3399	0.684400
3415	0.684500
3425	0.684600
3439	0.684700
3449	0.684800
3456	0.684900
3458	0.685000
3466	0.685100
3481	0.685200
3488	0.685300
3489	0.685400
3493	0.685500
3500	0.685600
3505	0.685700
3507	0.685800
3512	0.685900
3524	0.686000
3536	0.686100
3544	0.686200
3568	0.686300
3579	0.686400
3583	0.686500
3589	0.686600
3598	0.686700
3603	0.686800
3604	0.686900
3611	0.687000
3616	0.687100
3619	0.687200
3627	0.687300
3629	0.687400
3636	0.687500
3638	0.687600
3653	0.687700
3669	0.687800
3682	0.687900
3685	0.688000
3695	0.688100
3710	0.688200
3725	0.688300
3729	0.688400
3736	0.688500
3738	0.688600
3743	0.688700
3774	0.688800
3775	0.688900
3783	0.689000
3784	0.689100
3789	0.689200
3805	0.689300
3815	0.689400
3816	0.689500
3822	0.689600
3828	0.689700
3850	0.689800
3852	0.689900
3856	0.690000
3866	0.690100
3869	0.690200
3871	0.690300
3879	0.690400
3881	0.690500
3888	0.690600
3901	0.690700
3914	0.690800
3916	0.690900
3932	0.691100
3933	0.691200
3935	0.691300
3936	0.691500
3982	0.691600
3983	0.691700
3985	0.691800
3989	0.691900
3998	0.692000
4009	0.692100
4016	0.692200
4031	0.692300
4041	0.692400
4045	0.692500
4047	0.692600
4054	0.692700
4059	0.692800
4061	0.692900
4073	0.693000
4076	0.693100
4079	0.693200
4118	0.693300
4145	0.693400
4155	0.693500
4181	0.693600
4188	0.693700
4200	0.693800
4204	0.693900
4217	0.694000
4225	0.694100
4247	0.694200
4262	0.694300
4265	0.694400
4274	0.694500
4276	0.694600
4289	0.694700
4307	0.694800
4326	0.694900
4328	0.695000
4347	0.695100
4348	0.695200
4366	0.695300
4370	0.695400
4372	0.695500
4395	0.695600
4404	0.695700
4419	0.695800
4431	0.695900
4453	0.696100
4455	0.696200
4463	0.696400
4473	0.696500
4477	0.696600
4480	0.696700
4488	0.696800
4491	0.696900
4508	0.697000
4532	0.697100
4533	0.697200
4534	0.697300
4540	0.697400
4563	0.697500
4567	0.697600
4574	0.697700
4614	0.697800
4623	0.697900
4647	0.698000
4652	0.698100
4665	0.698200
4667	0.698400
4675	0.698500
4676	0.698600
4701	0.698700
4704	0.698800
4707	0.698900
4731	0.699000
4734	0.699100
4744	0.699200
4745	0.699400
4762	0.699500
4769	0.699600
4774	0.699700
4783	0.699800
4795	0.699900
4807	0.700000
4820	0.700100
4823	0.700200
4828	0.700300
4831	0.700500
4834	0.700600
4836	0.700700
4839	0.700800
4848	0.701000
4852	0.701100
4890	0.701200
4893	0.701300
4900	0.701400
4901	0.701500
4902	0.701600
4908	0.701700
4916	0.701800
4924	0.701900
4941	0.702000
4942	0.702100
4948	0.702200
4953	0.702300
4961	0.702400
4991	0.702500
4994	0.702600
5027	0.702800
5033	0.702900
5039	0.703000
5050	0.703100
5053	0.703200
5072	0.703300
5085	0.703400
5100	0.703500
5130	0.703600
5136	0.703700
5200	0.703800
5220	0.703900
5225	0.704000
5235	0.704200
5244	0.704300
5250	0.704400
5261	0.704500
5265	0.704600
5269	0.704700
5282	0.704800
5319	0.704900
5320	0.705000
5323	0.705100
5330	0.705200
5335	0.705300
5345	0.705400
5370	0.705500
5374	0.705600
5392	0.705700
5402	0.705800
5408	0.705900
5415	0.706000
5424	0.706100
5425	0.706200
5463	0.706300
5473	0.706400
5478	0.706500
5483	0.706600
5494	0.706700
5500	0.706800
5508	0.707000
5513	0.707100
5520	0.707200
5528	0.707300
5547	0.707400
5550	0.707500
5580	0.707600
5619	0.707800
5657	0.707900
5670	0.708100
5678	0.708200
5718	0.708400
5719	0.708500
5726	0.708600
5736	0.708700
5737	0.708800
5741	0.708900
5751	0.709000
5757	0.709100
5775	0.709200
5830	0.709300
5836	0.709400
5840	0.709500
5844	0.709600
5849	0.709700
5896	0.709800
5898	0.709900
5913	0.710000
5914	0.710100
5939	0.710200
5972	0.710300
6003	0.710400
6005	0.710500
6012	0.710600
6034	0.710700
6035	0.710800
6037	0.711000
6046	0.711100
6062	0.711200
6076	0.711300
6086	0.711400
6088	0.711500
6092	0.711600
6126	0.711700
6134	0.711800
6146	0.711900
6154	0.712000
6160	0.712100
6161	0.712200
6163	0.712300
6170	0.712400
6194	0.712500
6197	0.712600
6219	0.712700
6252	0.712800
6301	0.712900
6303	0.713000
6314	0.713100
6329	0.713200
6336	0.713300
6341	0.713400
6351	0.713500
6357	0.713600
6362	0.713700
6375	0.713800
