key	frequency
0	0.000100
1	0.000500
3	0.000700
4	0.000800
6	0.000900
9	0.001100
10	0.001400
11	0.001500
14	0.001600
21	0.001700
22	0.001800
25	0.001900
26	0.002000
27	0.002100
28	0.002200
30	0.002300
44	0.002400
47	0.002500
48	0.002600
52	0.002700
55	0.002800
56	0.002900
59	0.003000
65	0.003200
84	0.003300
92	0.003400
96	0.003500
108	0.003600
110	0.003700
114	0.003800
115	0.004000
117	0.004100
129	0.004200
130	0.004300
138	0.004400
139	0.004500
153	0.004700
162	0.005000
164	0.005100
190	0.005200
191	0.005300
194	0.005400
204	0.005500
217	0.005600
249	0.005700
256	0.005800
259	0.005900
265	0.006000
309	0.006100
353	0.006200
378	0.006300
400	0.006400
419	0.006500
425	0.006600
454	0.006700
460	0.006800
507	0.006900
512	0.007000
544	0.007100
546	0.007200
570	0.007300
576	0.007400
577	0.007500
621	0.007600
645	0.007700
648	0.007800
651	0.007900
657	0.008000
682	0.008100
690	0.008200
723	0.008300
728	0.008400
729	0.008500
742	0.008600
755	0.008700
757	0.008800
764	0.008900
770	0.009000
786	0.009100
806	0.009200
877	0.009300
892	0.009400
915	0.009500
925	0.009600
943	0.009700
996	0.009800
1013	0.009900
1025	0.010000
1041	0.010100
1059	0.010200
1123	0.010300
1195	0.010400
1245	0.010500
1251	0.010600
1296	0.010700
1306	0.010800
1307	0.010900
1309	0.011000
1320	0.011100
1325	0.011200
1338	0.011300
1341	0.011400
1342	0.011500
1370	0.011600
1429	0.011700
1441	0.011800
1531	0.011900
1575	0.012000
1618	0.012100
1646	0.012200
1655	0.012300
1704	0.012400
1749	0.012500
1756	0.012600
1757	0.012700
1803	0.012800
1849	0.012900
1948	0.013000
1953	0.013100
1973	0.013200
2002	0.013300
2023	0.013400
2083	0.013500
2185	0.013600
2332	0.013700
2370	0.013800
2435	0.013900
2471	0.014000
2490	0.014100
2532	0.014200
2620	0.014300
2662	0.014400
2697	0.014500
2718	0.014600
2913	0.014700
2971	0.014800
2985	0.014900
2994	0.015000
3020	0.015100
3027	0.015200
3128	0.015300
3150	0.015400
3173	0.015500
3299	0.015600
3350	0.015700
3419	0.015800
3480	0.015900
3574	0.016000
3618	0.016100
3632	0.016200
3684	0.016300
3750	0.016400
3790	0.016500
4039	0.016600
4048	0.016700
4078	0.016800
4167	0.016900
4202	0.017000
4331	0.017100
4388	0.017200
4621	0.017300
4630	0.017400
4634	0.017500
4785	0.017600
4807	0.017700
4891	0.017800
4905	0.017900
5170	0.018000
5379	0.018100
5452	0.018200
5469	0.018300
5554	0.018400
5615	0.018500
5619	0.018600
5643	0.018700
5657	0.018800
5662	0.018900
5675	0.019000
5763	0.019100
5770	0.019200
5808	0.019300
5865	0.019400
5890	0.019500
6027	0.019600
6038	0.019700
6145	0.019800
6180	0.019900
6356	0.020000
6378	0.020100
6436	0.020200
6548	0.020300
6560	0.020400
6572	0.020500
6636	0.020600
6670	0.020700
6740	0.020800
6831	0.020900
6844	0.021000
7110	0.021100
7167	0.021200
7173	0.021300
7191	0.021400
7233	0.021500
7360	0.021600
7444	0.021700
7550	0.021800
7660	0.021900
7673	0.022000
7699	0.022100
7739	0.022200
7773	0.022300
7782	0.022400
7922	0.022500
8096	0.022600
8137	0.022700
8289	0.022900
8301	0.023000
8332	0.023100
8451	0.023200
8679	0.023300
8694	0.023400
8706	0.023500
8746	0.023600
8798	0.023700
8891	0.023800
8981	0.024000
9104	0.024100
9116	0.024200
9172	0.024300
9196	0.024400
9256	0.024500
9319	0.024600
9334	0.024700
9401	0.024800
9585	0.024900
9592	0.025000
9689	0.025100
10104	0.025200
10224	0.025300
10233	0.025400
10353	0.025500
10365	0.025600
10693	0.025700
10721	0.025800
11305	0.025900
11408	0.026000
11419	0.026100
11440	0.026200
11724	0.026300
11840	0.026400
11843	0.026500
11950	0.026600
12098	0.026700
12196	0.026800
12231	0.026900
12373	0.027000
12389	0.027100
12420	0.027200
12438	0.027300
12534	0.027400
12715	0.027500
12781	0.027600
13313	0.027700
13431	0.027800
13516	0.027900
13813	0.028000
13838	0.028100
14232	0.028200
14286	0.028300
14384	0.028400
14403	0.028500
14540	0.028600
14752	0.028700
14959	0.028800
14971	0.028900
15043	0.029000
15399	0.029100
15570	0.029200
15606	0.029300
15740	0.029400
15750	0.029500
15805	0.029600
15902	0.029700
15921	0.029800
15967	0.029900
16051	0.030000
16147	0.030100
16482	0.030200
16753	0.030300
16890	0.030400
16917	0.030500
16937	0.030600
17317	0.030700
17319	0.030800
17320	0.030900
17364	0.031000
17469	0.031100
17519	0.031200
17679	0.031300
17689	0.031400
17766	0.031500
17791	0.031600
17824	0.031700
18156	0.031800
18281	0.031900
18325	0.032000
18414	0.032100
18448	0.032200
18658	0.032300
18707	0.032400
18813	0.032500
18828	0.032600
18832	0.032700
19198	0.032800
19267	0.032900
19270	0.033000
19693	0.033100
20628	0.033200
20812	0.033300
21022	0.033400
21057	0.033500
21134	0.033600
21142	0.033700
21385	0.033800
21646	0.033900
21711	0.034000
21718	0.034100
22054	0.034200
22687	0.034300
23050	0.034400
23259	0.034500
23265	0.034600
23295	0.034700
23315	0.034800
23386	0.034900
23480	0.035000
23743	0.035100
23766	0.035200
24004	0.035300
24533	0.035400
24681	0.035500
24682	0.035600
24729	0.035700
24812	0.035800
25011	0.035900
25022	0.036000
25154	0.036100
25196	0.036200
25484	0.036300
25921	0.036400
25929	0.036500
26050	0.036600
26245	0.036700
26247	0.036800
26326	0.036900
26351	0.037000
26460	0.037100
26487	0.037200
26848	0.037300
26985	0.037400
27520	0.037500
28699	0.037600
28868	0.037700
28918	0.037800
29012	0.037900
29166	0.038000
29188	0.038100
29232	0.038200
29706	0.038300
29718	0.038400
29737	0.038500
30077	0.038600
30294	0.038700
30319	0.038800
30688	0.038900
30862	0.039000
30931	0.039100
30941	0.039200
30942	0.039300
31118	0.039400
31637	0.039500
31890	0.039600
31936	0.039700
31977	0.039800
32228	0.039900
32466	0.040000
32673	0.040100
32675	0.040200
32704	0.040300
32706	0.040400
32722	0.040500
32821	0.040600
33024	0.040700
33071	0.040800
33412	0.040900
33493	0.041000
33718	0.041100
33733	0.041200
34060	0.041300
34525	0.041400
34539	0.041500
34599	0.041600
34668	0.041700
34766	0.041800
35564	0.041900
36181	0.042000
36706	0.042100
36734	0.042200
37110	0.042300
37202	0.042400
37209	0.042500
37498	0.042600
37612	0.042700
37930	0.042800
38253	0.042900
38298	0.043000
38668	0.043100
39004	0.043200
39207	0.043300
39695	0.043400
39784	0.043500
40083	0.043600
40284	0.043700
40449	0.043800
40774	0.043900
40943	0.044000
41242	0.044100
41489	0.044200
41566	0.044300
41903	0.044400
41937	0.044500
42184	0.044600
42380	0.044700
43003	0.044800
43303	0.044900
43593	0.045000
43644	0.045100
43907	0.045200
44725	0.045300
44841	0.045400
44870	0.045500
44981	0.045600
45108	0.045700
45481	0.045800
45640	0.045900
45940	0.046000
46168	0.046100
46468	0.046200
46976	0.046300
47185	0.046400
47348	0.046500
47657	0.046600
48021	0.046700
48228	0.046800
48299	0.046900
48392	0.047000
48590	0.047100
48635	0.047200
49740	0.047300
49943	0.047400
50110	0.047500
50428	0.047600
50544	0.047700
50617	0.047800
51449	0.047900
51458	0.048000
51615	0.048100
51633	0.048200
51901	0.048300
52688	0.048400
53000	0.048500
53086	0.048600
53088	0.048700
53143	0.048800
53891	0.048900
53916	0.049000
54297	0.049100
54299	0.049200
54474	0.049300
54638	0.049400
55061	0.049500
55312	0.049600
56089	0.049700
56277	0.049800
56406	0.049900
57224	0.050000
58247	0.050100
58296	0.050200
58575	0.050300
58658	0.050400
58692	0.050500
58897	0.050600
58931	0.050700
59092	0.050800
59443	0.050900
59554	0.051000
59750	0.051100
60139	0.051200
60243	0.051300
60853	0.051400
61063	0.051500
61083	0.051600
61233	0.051700
61574	0.051800
61779	0.051900
61820	0.052000
62240	0.052100
62534	0.052200
62860	0.052300
63071	0.052400
63087	0.052500
63107	0.052600
63157	0.052700
63429	0.052800
63586	0.052900
63640	0.053000
63668	0.053100
63683	0.053200
64234	0.053300
64525	0.053400
65226	0.053500
65266	0.053600
65539	0.053700
65968	0.053800
66222	0.053900
66294	0.054000
66365	0.054100
66598	0.054200
66627	0.054300
66830	0.054400
67891	0.054500
68050	0.054600
69312	0.054700
69588	0.054800
69918	0.054900
70407	0.055000
70620	0.055100
70843	0.055200
70961	0.055300
72308	0.055400
72447	0.055500
72581	0.055600
73186	0.055700
73261	0.055800
73269	0.055900
73354	0.056000
73390	0.056100
74114	0.056200
74343	0.056300
74777	0.056400
76000	0.056500
76570	0.056600
76591	0.056700
77482	0.056800
77588	0.056900
77642	0.057000
77808	0.057100
77980	0.057200
78516	0.057300
78619	0.057400
79488	0.057500
79663	0.057600
79962	0.057700
80554	0.057800
81345	0.057900
81549	0.058000
81704	0.058100
81888	0.058200
82954	0.058300
83078	0.058400
83123	0.058500
83194	0.058600
83341	0.058700
83362	0.058800
83501	0.058900
84070	0.059000
84176	0.059100
84499	0.059200
84715	0.059300
84914	0.059400
85423	0.059500
85438	0.059600
85514	0.059700
85610	0.059800
86957	0.059900
87041	0.060000
87085	0.060100
87149	0.060200
87943	0.060300
88338	0.060400
88423	0.060500
88559	0.060600
88577	0.060700
88816	0.060800
88986	0.060900
89896	0.061000
90930	0.061100
91113	0.061200
92224	0.061300
92291	0.061400
92554	0.061500
92564	0.061600
92765	0.061700
93092	0.061800
93094	0.061900
93199	0.062000
93920	0.062100
94183	0.062200
95487	0.062300
95930	0.062400
95943	0.062500
96372	0.062600
97018	0.062700
97087	0.062800
97372	0.062900
97628	0.063000
97665	0.063100
97710	0.063200
98412	0.063300
99140	0.063400
99497	0.063500
100313	0.063600
100374	0.063700
100812	0.063800
100881	0.063900
100950	0.064000
101304	0.064100
102017	0.064200
102558	0.064300
103132	0.064400
103297	0.064500
103609	0.064600
104307	0.064700
104455	0.064800
104659	0.064900
104936	0.065000
104991	0.065100
105071	0.065200
105637	0.065300
106087	0.065400
106700	0.065500
107324	0.065600
108239	0.065700
108260	0.065800
108581	0.065900
109021	0.066000
109132	0.066100
109219	0.066200
109843	0.066300
110376	0.066400
110771	0.066500
111423	0.066600
111648	0.066700
111756	0.066800
112180	0.066900
112501	0.067000
112543	0.067100
112675	0.067200
113425	0.067300
114188	0.067400
114791	0.067500
115014	0.067600
115617	0.067700
115853	0.067800
116247	0.067900
116261	0.068000
117215	0.068100
117218	0.068200
118155	0.068300
118559	0.068400
118576	0.068500
118925	0.068600
119154	0.068700
119482	0.068800
119505	0.068900
119884	0.069000
120152	0.069100
120210	0.069200
120557	0.069300
121903	0.069400
122075	0.069500
122311	0.069600
122424	0.069700
122601	0.069800
123162	0.069900
123825	0.070000
123878	0.070100
124241	0.070200
124737	0.070300
125212	0.070400
125281	0.070500
125667	0.070600
125881	0.070700
126286	0.070800
126546	0.070900
127475	0.071000
127526	0.071100
127729	0.071200
127760	0.071300
128799	0.071400
129124	0.071500
129576	0.071600
129652	0.071700
130512	0.071800
131444	0.071900
131601	0.072000
131833	0.072100
132525	0.072200
133030	0.072300
133988	0.072400
134185	0.072500
135565	0.072600
135878	0.072700
137938	0.072800
138509	0.072900
138950	0.073000
139301	0.073100
139378	0.073200
139887	0.073300
141107	0.073400
141315	0.073500
142032	0.073600
143670	0.073700
143847	0.073800
144063	0.073900
144492	0.074000
144617	0.074100
144983	0.074200
145054	0.074300
145213	0.074400
145631	0.074500
145924	0.074600
146251	0.074700
146664	0.074800
146690	0.074900
146731	0.075000
147084	0.075100
147096	0.075200
148685	0.075300
149249	0.075400
149472	0.075500
149800	0.075600
150062	0.075700
150094	0.075800
151021	0.075900
151368	0.076000
151805	0.076100
152747	0.076200
153273	0.076300
153757	0.076400
154416	0.076500
154651	0.076600
154731	0.076700
154734	0.076800
155365	0.076900
155428	0.077000
156459	0.077100
156598	0.077200
156817	0.077300
157057	0.077400
157059	0.077500
157071	0.077600
157102	0.077700
159226	0.077800
159459	0.077900
159992	0.078000
160044	0.078100
160391	0.078200
160609	0.078300
160755	0.078400
161168	0.078500
161232	0.078600
162234	0.078700
162311	0.078800
162969	0.078900
163018	0.079000
163506	0.079100
165274	0.079200
165613	0.079300
166262	0.079400
166518	0.079500
166636	0.079600
167568	0.079700
168151	0.079800
168666	0.079900
168714	0.080000
169315	0.080100
169676	0.080200
169935	0.080300
172112	0.080400
173497	0.080500
173512	0.080600
174622	0.080700
175285	0.080800
176017	0.080900
176245	0.081000
176465	0.081100
177544	0.081200
177696	0.081300
178078	0.081400
179381	0.081500
180626	0.081600
182360	0.081700
182792	0.081800
183059	0.081900
183850	0.082000
184607	0.082100
185571	0.082200
186477	0.082300
186576	0.082400
186916	0.082500
187067	0.082600
187098	0.082700
187239	0.082800
187649	0.082900
187758	0.083000
188325	0.083100
188655	0.083200
188910	0.083300
189096	0.083400
190686	0.083500
191508	0.083600
191538	0.083700
191978	0.083800
192065	0.083900
192489	0.084000
192730	0.084100
192945	0.084200
193298	0.084300
193353	0.084400
194175	0.084500
196572	0.084600
196825	0.084700
198290	0.084800
198517	0.084900
198890	0.085000
199167	0.085100
200290	0.085200
200919	0.085300
201207	0.085400
202836	0.085500
204824	0.085600
204853	0.085700
205185	0.085800
205252	0.085900
205824	0.086000
206566	0.086100
206825	0.086200
207689	0.086300
207890	0.086400
207973	0.086500
208223	0.086600
208892	0.086700
209302	0.086800
209621	0.086900
209979	0.087000
210694	0.087100
210750	0.087200
211982	0.087300
214020	0.087400
214865	0.087500
214903	0.087600
214919	0.087700
215190	0.087800
215804	0.087900
216865	0.088000
218392	0.088100
218418	0.088200
218516	0.088300
219142	0.088400
219288	0.088500
220595	0.088600
221011	0.088700
221088	0.088800
221160	0.088900
221465	0.089000
222847	0.089100
223276	0.089200
224530	0.089300
225377	0.089400
226016	0.089500
226930	0.089600
227573	0.089700
227752	0.089800
229949	0.089900
230174	0.090000
230241	0.090100
230482	0.090200
231872	0.090300
232576	0.090400
232875	0.090500
232982	0.090600
233292	0.090700
234974	0.090800
235360	0.090900
235707	0.091000
235718	0.091100
236209	0.091200
236327	0.091300
236328	0.091400
237655	0.091500
238249	0.091600
239583	0.091700
241832	0.091800
242669	0.091900
243595	0.092000
243751	0.092100
245368	0.092200
246964	0.092300
247030	0.092400
247371	0.092500
247517	0.092600
249057	0.092700
250227	0.092800
250634	0.092900
250925	0.093000
251064	0.093100
251969	0.093200
252025	0.093300
253641	0.093400
253890	0.093500
255231	0.093600
255814	0.093700
257033	0.093800
257933	0.093900
258326	0.094000
260803	0.094100
260819	0.094200
260970	0.094300
261249	0.094400
261457	0.094500
262330	0.094600
263278	0.094700
264525	0.094800
266328	0.094900
267368	0.095000
268133	0.095100
268718	0.095200
268795	0.095300
269225	0.095400
269375	0.095500
269658	0.095600
269934	0.095700
272529	0.095800
273265	0.095900
273534	0.096000
273917	0.096100
274625	0.096200
275221	0.096300
275810	0.096400
275875	0.096500
276153	0.096600
276997	0.096700
277050	0.096800
279552	0.096900
281668	0.097000
281697	0.097100
281873	0.097200
281999	0.097300
282091	0.097400
284461	0.097500
286758	0.097600
287210	0.097700
287594	0.097800
289865	0.097900
291111	0.098000
292343	0.098100
292797	0.098200
294052	0.098300
294113	0.098400
294375	0.098500
295418	0.098600
297663	0.098700
298220	0.098800
299010	0.098900
299178	0.099000
305002	0.099100
307519	0.099200
309531	0.099300
311133	0.099400
311686	0.099500
312329	0.099600
315164	0.099800
316626	0.099900
317356	0.100000
319396	0.100100
319827	0.100200
321443	0.100300
321944	0.100400
322138	0.100500
322424	0.100600
322920	0.100700
323001	0.100800
324516	0.100900
325244	0.101000
325702	0.101100
327423	0.101200
327616	0.101300
330038	0.101400
330447	0.101500
331387	0.101600
331730	0.101700
333630	0.101800
335055	0.101900
335081	0.102000
335476	0.102100
336232	0.102200
336723	0.102300
336984	0.102400
338279	0.102500
339034	0.102600
339081	0.102700
339562	0.102800
340079	0.102900
340312	0.103000
340536	0.103100
342064	0.103200
342244	0.103300
342667	0.103400
344002	0.103500
344248	0.103600
349448	0.103700
351096	0.103800
352187	0.103900
352763	0.104000
353181	0.104100
354048	0.104200
355276	0.104300
356098	0.104400
356900	0.104500
358812	0.104600
358818	0.104700
359106	0.104800
360728	0.104900
361366	0.105000
361639	0.105100
361654	0.105200
362289	0.105300
365672	0.105400
365904	0.105500
366588	0.105600
366947	0.105700
370051	0.105800
370506	0.105900
372793	0.106000
373019	0.106100
373132	0.106200
373213	0.106300
373602	0.106400
376377	0.106500
376525	0.106600
376815	0.106700
377104	0.106800
378965	0.106900
380861	0.107000
381641	0.107100
381771	0.107200
382327	0.107300
384042	0.107400
384800	0.107500
384819	0.107600
385780	0.107700
388728	0.107800
389165	0.107900
389765	0.108000
391190	0.108100
391910	0.108200
395084	0.108300
395418	0.108400
398139	0.108500
398571	0.108600
400900	0.108700
402715	0.108800
403975	0.108900
404810	0.109000
405100	0.109100
405422	0.109200
405641	0.109300
407362	0.109400
407486	0.109500
407795	0.109600
409330	0.109700
410073	0.109800
412435	0.109900
412706	0.110000
413049	0.110100
413477	0.110200
413815	0.110300
414544	0.110400
415206	0.110500
415561	0.110600
415849	0.110700
417319	0.110800
417828	0.110900
419062	0.111000
421430	0.111100
421974	0.111200
422056	0.111300
422869	0.111400
423260	0.111500
423646	0.111600
424021	0.111700
424947	0.111800
427031	0.111900
427399	0.112000
428405	0.112100
428569	0.112200
430994	0.112300
435085	0.112400
435370	0.112500
435641	0.112600
435652	0.112700
438777	0.112800
439531	0.112900
440407	0.113000
442115	0.113100
442148	0.113200
442327	0.113300
442406	0.113400
444088	0.113500
445880	0.113600
446795	0.113700
447675	0.113800
448035	0.113900
448257	0.114000
450501	0.114100
454026	0.114200
456139	0.114300
456259	0.114400
458885	0.114500
460153	0.114600
461626	0.114700
461628	0.114800
462151	0.114900
463396	0.115000
464318	0.115100
464549	0.115200
466499	0.115300
467049	0.115400
467332	0.115500
468383	0.115600
469554	0.115700
469686	0.115800
470888	0.115900
471413	0.116000
471541	0.116100
473241	0.116200
476759	0.116300
478069	0.116400
479055	0.116500
479214	0.116600
480167	0.116700
480972	0.116800
481031	0.116900
481699	0.117000
484418	0.117100
485420	0.117200
485492	0.117300
485783	0.117400
485912	0.117500
486240	0.117600
487199	0.117700
490442	0.117800
490679	0.117900
490924	0.118000
491121	0.118100
491502	0.118200
492521	0.118300
492828	0.118400
496562	0.118500
496633	0.118600
497054	0.118700
501107	0.118800
502397	0.118900
503147	0.119000
505255	0.119100
506340	0.119200
506499	0.119300
508113	0.119400
509559	0.119500
509732	0.119600
510435	0.119700
511534	0.119800
512698	0.119900
514427	0.120000
515012	0.120100
516535	0.120200
517871	0.120300
519842	0.120400
520458	0.120500
520831	0.120600
522543	0.120700
523929	0.120800
524260	0.120900
524285	0.121000
527342	0.121100
527592	0.121200
531959	0.121300
533541	0.121400
534012	0.121500
535156	0.121600
535421	0.121700
536781	0.121800
537205	0.121900
538695	0.122000
542584	0.122100
543807	0.122200
544077	0.122300
545530	0.122400
545774	0.122500
546491	0.122600
546535	0.122700
547419	0.122800
547696	0.122900
548019	0.123000
548929	0.123100
550884	0.123200
552153	0.123300
553552	0.123400
555627	0.123500
555741	0.123600
556246	0.123700
558526	0.123800
558951	0.123900
558984	0.124000
559350	0.124100
561140	0.124200
561201	0.124300
562630	0.124400
562633	0.124500
563455	0.124600
563466	0.124700
566791	0.124800
567130	0.124900
568562	0.125000
569430	0.125100
570782	0.125200
575635	0.125300
578226	0.125400
582814	0.125500
586330	0.125600
586424	0.125700
586620	0.125800
587704	0.125900
591476	0.126000
592076	0.126100
594386	0.126200
594709	0.126300
597342	0.126400
597490	0.126500
597548	0.126600
598036	0.126700
601338	0.126800
603831	0.126900
604005	0.127000
604370	0.127100
605474	0.127200
606380	0.127300
606697	0.127400
606720	0.127500
606962	0.127600
607504	0.127700
608236	0.127800
608747	0.127900
610126	0.128000
610756	0.128100
612494	0.128200
612531	0.128300
613064	0.128400
613640	0.128500
621599	0.128600
621805	0.128700
622433	0.128800
623469	0.128900
624200	0.129000
626621	0.129100
627944	0.129200
629425	0.129300
630621	0.129400
630805	0.129500
631011	0.129600
631929	0.129700
632517	0.129800
633357	0.129900
634348	0.130000
635045	0.130100
637855	0.130200
638387	0.130300
638831	0.130400
638880	0.130500
640206	0.130600
640968	0.130700
641002	0.130800
641035	0.130900
641703	0.131000
641718	0.131100
642248	0.131200
644455	0.131300
644749	0.131400
645325	0.131500
648389	0.131600
648418	0.131700
648950	0.131800
648973	0.131900
649396	0.132000
650881	0.132100
654402	0.132200
655373	0.132300
655552	0.132400
656102	0.132500
