key	frequency
0	0.005001
1	0.007969
2	0.010303
3	0.012286
4	0.014070
5	0.015454
6	0.016604
7	0.017654
8	0.018655
9	0.019422
10	0.020255
11	0.020955
12	0.021755
13	0.022456
14	0.023089
15	0.023606
16	0.024073
17	0.024673
18	0.025106
19	0.025490
20	0.025973
21	0.026457
22	0.026890
23	0.027390
24	0.027724
25	0.028357
26	0.028791
27	0.029141
28	0.029524
29	0.029874
30	0.030241
31	0.030508
32	0.030891
33	0.031291
34	0.031558
35	0.031825
36	0.032175
37	0.032558
38	0.032858
39	0.033058
40	0.033292
41	0.033658
42	0.033958
43	0.034242
44	0.034325
45	0.034459
46	0.034625
47	0.034809
48	0.034992
49	0.035209
50	0.035376
51	0.035576
52	0.035726
53	0.035976
54	0.036259
55	0.036509
56	0.036726
57	0.036943
58	0.037143
59	0.037259
60	0.037376
61	0.037576
62	0.037759
63	0.037959
64	0.038110
65	0.038276
66	0.038510
67	0.038676
68	0.038810
69	0.038976
70	0.039126
71	0.039226
72	0.039460
73	0.039593
74	0.039643
75	0.039777
76	0.039910
77	0.040077
78	0.040160
79	0.040327
80	0.040493
81	0.040593
82	0.040744
83	0.040894
84	0.041060
85	0.041244
86	0.041360
87	0.041544
88	0.041710
89	0.041927
90	0.042094
91	0.042327
92	0.042394
93	0.042527
94	0.042661
95	0.042861
96	0.042994
97	0.043077
98	0.043161
99	0.043194
100	0.043277
101	0.043327
102	0.043428
103	0.043544
104	0.043761
105	0.043911
106	0.043944
107	0.044044
108	0.044261
109	0.044361
110	0.044444
111	0.044578
112	0.044711
113	0.044745
114	0.044895
115	0.044995
116	0.045061
117	0.045111
118	0.045178
119	0.045278
120	0.045345
121	0.045361
122	0.045411
123	0.045611
124	0.045745
125	0.045828
126	0.045995
127	0.046062
128	0.046178
129	0.046262
130	0.046428
131	0.046528
132	0.046662
133	0.046795
134	0.046895
135	0.047012
136	0.047145
137	0.047228
138	0.047295
139	0.047395
140	0.047529
141	0.047679
142	0.047729
143	0.047845
144	0.047945
145	0.048112
146	0.048212
147	0.048329
148	0.048395
149	0.048479
150	0.048562
151	0.048679
152	0.048829
153	0.048962
154	0.049029
155	0.049079
156	0.049212
157	0.049296
158	0.049396
159	0.049462
160	0.049512
161	0.049579
162	0.049696
163	0.049779
164	0.049862
165	0.049879
166	0.049979
167	0.050096
168	0.050196
169	0.050263
170	0.050279
171	0.050346
172	0.050463
173	0.050513
174	0.050563
175	0.050629
176	0.050746
177	0.050896
178	0.051029
179	0.051096
180	0.051179
181	0.051246
182	0.051363
183	0.051480
184	0.051530
185	0.051580
186	0.051646
187	0.051730
188	0.051780
189	0.051846
190	0.051880
191	0.051913
192	0.051980
193	0.052063
194	0.052130
195	0.052213
197	0.052280
198	0.052380
199	0.052413
200	0.052546
201	0.052613
202	0.052713
203	0.052763
204	0.052847
205	0.052880
206	0.052980
207	0.053097
208	0.053130
209	0.053247
210	0.053297
211	0.053347
212	0.053397
213	0.053513
214	0.053580
215	0.053663
216	0.053713
217	0.053813
218	0.053830
219	0.053913
220	0.053997
221	0.054064
222	0.054097
223	0.054147
224	0.054230
225	0.054314
227	0.054414
228	0.054530
229	0.054580
230	0.054614
231	0.054680
232	0.054697
233	0.054780
234	0.054897
235	0.054930
236	0.055014
237	0.055114
238	0.055147
239	0.055230
240	0.055314
241	0.055431
242	0.055447
243	0.055481
244	0.055614
245	0.055631
246	0.055681
247	0.055714
248	0.055764
249	0.055897
250	0.055914
251	0.055947
252	0.055964
253	0.056014
254	0.056047
255	0.056097
256	0.056164
257	0.056264
258	0.056281
259	0.056331
260	0.056397
261	0.056481
262	0.056497
263	0.056564
265	0.056614
266	0.056664
267	0.056764
268	0.056798
269	0.056898
270	0.056964
271	0.057031
272	0.057081
273	0.057098
274	0.057198
275	0.057231
276	0.057314
278	0.057381
279	0.057431
280	0.057464
281	0.057481
282	0.057548
283	0.057581
284	0.057681
285	0.057714
286	0.057731
287	0.057798
288	0.057848
289	0.057881
290	0.057898
291	0.057914
292	0.057998
293	0.058065
294	0.058181
295	0.058231
296	0.058265
297	0.058331
298	0.058398
299	0.058481
300	0.058498
302	0.058581
303	0.058631
305	0.058731
306	0.058781
307	0.058831
308	0.058865
309	0.058898
310	0.058998
311	0.059048
312	0.059098
313	0.059115
314	0.059181
315	0.059265
316	0.059331
317	0.059365
318	0.059448
319	0.059565
320	0.059598
321	0.059698
322	0.059782
323	0.059898
324	0.059932
326	0.059965
327	0.060032
328	0.060065
329	0.060132
330	0.060198
331	0.060232
332	0.060298
333	0.060332
334	0.060398
335	0.060415
336	0.060532
337	0.060548
338	0.060632
339	0.060665
340	0.060682
341	0.060699
342	0.060715
343	0.060732
344	0.060799
345	0.060865
346	0.060915
347	0.060949
348	0.060999
349	0.061115
351	0.061149
352	0.061199
353	0.061265
354	0.061332
355	0.061382
356	0.061465
357	0.061532
358	0.061565
359	0.061582
360	0.061649
361	0.061749
362	0.061782
363	0.061799
364	0.061849
365	0.061865
366	0.061915
367	0.061949
368	0.062032
369	0.062066
370	0.062149
371	0.062182
372	0.062199
373	0.062216
374	0.062266
375	0.062282
376	0.062316
377	0.062366
378	0.062399
379	0.062449
380	0.062482
381	0.062516
383	0.062549
384	0.062616
385	0.062666
386	0.062699
387	0.062766
388	0.062799
389	0.062832
390	0.062882
391	0.062899
392	0.062949
393	0.062999
394	0.063032
395	0.063082
396	0.063099
397	0.063132
398	0.063182
399	0.063216
400	0.063266
401	0.063299
402	0.063332
403	0.063433
404	0.063499
405	0.063516
406	0.063533
407	0.063599
408	0.063649
410	0.063683
411	0.063733
412	0.063749
413	0.063766
414	0.063783
415	0.063833
416	0.063883
417	0.063966
419	0.064033
420	0.064049
421	0.064083
422	0.064116
423	0.064133
424	0.064166
425	0.064199
426	0.064216
427	0.064266
429	0.064283
431	0.064333
432	0.064349
433	0.064433
434	0.064516
435	0.064549
436	0.064583
437	0.064666
438	0.064700
440	0.064750
441	0.064816
442	0.064833
443	0.064883
444	0.064950
445	0.064966
446	0.065000
447	0.065033
448	0.065050
449	0.065066
451	0.065150
452	0.065183
453	0.065216
454	0.065266
455	0.065350
457	0.065400
458	0.065416
459	0.065450
460	0.065500
461	0.065550
462	0.065583
463	0.065600
464	0.065616
465	0.065633
466	0.065683
467	0.065733
468	0.065800
469	0.065816
470	0.065850
472	0.065900
473	0.065916
474	0.065933
475	0.065950
476	0.065983
477	0.066033
478	0.066050
479	0.066100
480	0.066167
481	0.066200
482	0.066233
483	0.066250
484	0.066267
485	0.066317
487	0.066367
488	0.066433
489	0.066467
490	0.066567
491	0.066600
493	0.066617
494	0.066683
495	0.066700
496	0.066767
497	0.066783
498	0.066833
499	0.066850
500	0.066900
502	0.066950
503	0.066967
504	0.066983
505	0.067000
506	0.067017
507	0.067033
508	0.067067
509	0.067083
510	0.067133
511	0.067150
512	0.067183
513	0.067217
514	0.067300
515	0.067334
516	0.067384
517	0.067417
518	0.067450
519	0.067484
520	0.067517
521	0.067550
522	0.067584
523	0.067617
524	0.067650
525	0.067667
526	0.067717
527	0.067734
528	0.067750
530	0.067784
531	0.067817
532	0.067867
534	0.067900
536	0.067934
537	0.067950
538	0.067984
539	0.068017
540	0.068034
541	0.068067
542	0.068134
543	0.068167
544	0.068217
545	0.068234
546	0.068250
547	0.068267
548	0.068334
550	0.068350
552	0.068434
553	0.068450
554	0.068517
555	0.068617
556	0.068717
557	0.068734
558	0.068751
559	0.068784
560	0.068801
561	0.068867
562	0.068884
563	0.068951
564	0.068984
565	0.069001
566	0.069017
568	0.069051
570	0.069084
571	0.069101
572	0.069117
573	0.069151
574	0.069234
575	0.069267
576	0.069301
577	0.069351
578	0.069384
579	0.069451
582	0.069484
583	0.069534
585	0.069551
586	0.069601
587	0.069667
588	0.069717
589	0.069784
590	0.069817
591	0.069851
592	0.069867
593	0.069884
594	0.069901
595	0.069934
596	0.069951
597	0.069984
599	0.070018
600	0.070101
601	0.070168
602	0.070184
603	0.070201
604	0.070234
605	0.070251
606	0.070301
607	0.070318
608	0.070334
609	0.070368
610	0.070401
611	0.070418
612	0.070451
613	0.070484
614	0.070501
615	0.070534
616	0.070551
617	0.070601
618	0.070618
619	0.070634
620	0.070651
621	0.070701
622	0.070718
623	0.070768
624	0.070818
625	0.070834
626	0.070868
627	0.070918
628	0.071018
629	0.071034
630	0.071051
631	0.071118
632	0.071134
633	0.071168
634	0.071201
635	0.071218
636	0.071234
637	0.071251
638	0.071268
639	0.071284
640	0.071301
641	0.071318
642	0.071368
643	0.071385
644	0.071418
645	0.071468
646	0.071501
647	0.071568
648	0.071585
649	0.071601
650	0.071635
651	0.071685
652	0.071735
653	0.071751
654	0.071785
655	0.071801
657	0.071868
658	0.071885
659	0.071901
660	0.071918
662	0.071951
664	0.072001
665	0.072101
666	0.072135
667	0.072151
668	0.072168
669	0.072201
672	0.072268
673	0.072285
674	0.072301
676	0.072318
677	0.072335
678	0.072368
679	0.072401
680	0.072418
682	0.072451
683	0.072468
685	0.072485
688	0.072535
689	0.072568
690	0.072585
692	0.072635
693	0.072651
694	0.072685
695	0.072718
696	0.072752
697	0.072785
698	0.072818
699	0.072852
700	0.072885
702	0.072968
703	0.072985
704	0.073035
705	0.073052
706	0.073102
708	0.073152
709	0.073168
710	0.073202
711	0.073252
712	0.073285
713	0.073335
714	0.073368
716	0.073385
717	0.073402
718	0.073418
719	0.073435
720	0.073452
721	0.073468
722	0.073518
723	0.073552
725	0.073602
726	0.073618
727	0.073635
729	0.073685
730	0.073718
731	0.073785
732	0.073802
733	0.073818
734	0.073835
735	0.073902
736	0.073968
737	0.073985
739	0.074019
740	0.074035
741	0.074052
742	0.074085
743	0.074119
745	0.074169
746	0.074185
747	0.074235
749	0.074319
750	0.074335
752	0.074369
753	0.074385
754	0.074419
755	0.074435
756	0.074452
757	0.074485
758	0.074569
759	0.074585
761	0.074635
762	0.074652
763	0.074685
765	0.074719
766	0.074769
767	0.074785
768	0.074869
771	0.074902
772	0.074919
773	0.074935
774	0.074952
775	0.074985
776	0.075002
777	0.075035
778	0.075069
780	0.075085
781	0.075119
782	0.075152
783	0.075169
784	0.075202
785	0.075269
786	0.075336
787	0.075352
788	0.075402
789	0.075436
791	0.075452
793	0.075486
796	0.075536
797	0.075569
798	0.075586
800	0.075619
802	0.075652
803	0.075686
804	0.075719
805	0.075752
807	0.075786
808	0.075802
809	0.075836
810	0.075869
811	0.075902
812	0.075936
813	0.075952
814	0.075969
817	0.075986
818	0.076002
819	0.076019
820	0.076086
822	0.076136
823	0.076169
824	0.076186
825	0.076219
827	0.076252
829	0.076269
830	0.076302
833	0.076369
834	0.076386
835	0.076419
838	0.076452
839	0.076469
840	0.076502
841	0.076519
842	0.076536
843	0.076552
844	0.076569
846	0.076602
848	0.076703
849	0.076719
851	0.076753
852	0.076769
854	0.076819
855	0.076853
858	0.076869
859	0.076919
860	0.076953
861	0.076969
862	0.077003
863	0.077053
864	0.077069
865	0.077086
866	0.077119
867	0.077136
868	0.077169
869	0.077186
870	0.077203
871	0.077253
872	0.077269
873	0.077303
874	0.077319
875	0.077336
877	0.077353
879	0.077369
880	0.077403
881	0.077419
884	0.077436
885	0.077469
887	0.077503
888	0.077519
891	0.077553
892	0.077569
893	0.077586
895	0.077619
896	0.077653
897	0.077669
898	0.077703
899	0.077736
900	0.077786
901	0.077819
902	0.077853
904	0.077886
905	0.077903
906	0.077919
907	0.077969
910	0.077986
911	0.078036
912	0.078070
913	0.078103
915	0.078136
916	0.078170
917	0.078186
918	0.078203
920	0.078220
921	0.078236
922	0.078270
923	0.078286
925	0.078320
927	0.078353
928	0.078370
930	0.078386
931	0.078403
932	0.078486
935	0.078520
936	0.078553
937	0.078570
938	0.078603
939	0.078636
940	0.078653
942	0.078670
943	0.078686
944	0.078736
945	0.078786
946	0.078803
947	0.078820
948	0.078836
949	0.078853
951	0.078886
952	0.078953
953	0.078970
954	0.079003
955	0.079020
956	0.079053
957	0.079070
960	0.079086
965	0.079103
966	0.079120
967	0.079136
969	0.079170
970	0.079186
971	0.079203
973	0.079236
974	0.079253
975	0.079303
977	0.079320
979	0.079337
980	0.079353
981	0.079370
982	0.079387
983	0.079403
984	0.079420
985	0.079437
987	0.079453
988	0.079470
990	0.079537
991	0.079570
999	0.079603
1001	0.079620
1004	0.079670
1005	0.079687
1006	0.079720
1008	0.079753
1009	0.079803
1010	0.079837
1011	0.079853
1013	0.079870
1014	0.079887
1015	0.079920
1016	0.079970
1018	0.080020
1019	0.080037
1020	0.080053
1023	0.080070
1024	0.080087
1025	0.080103
1027	0.080137
1028	0.080153
1031	0.080170
1032	0.080187
1033	0.080203
1035	0.080237
1036	0.080253
1037	0.080270
1038	0.080287
1040	0.080303
1041	0.080320
1042	0.080337
1043	0.080353
1044	0.080370
1045	0.080387
1046	0.080453
1047	0.080470
1048	0.080487
1051	0.080503
1054	0.080520
1055	0.080537
1057	0.080553
1058	0.080570
1059	0.080587
1060	0.080620
1062	0.080653
1063	0.080687
1065	0.080704
1067	0.080737
1069	0.080754
1072	0.080770
1076	0.080787
1077	0.080804
1078	0.080837
1079	0.080854
1080	0.080887
1081	0.080904
1082	0.080937
1083	0.080954
1084	0.081004
1085	0.081037
1086	0.081087
1087	0.081137
1088	0.081154
1089	0.081187
1091	0.081204
1092	0.081237
1094	0.081254
1095	0.081270
1096	0.081304
1099	0.081337
1100	0.081387
1101	0.081404
1102	0.081420
1105	0.081454
1106	0.081470
1108	0.081487
1109	0.081504
1110	0.081520
1111	0.081554
1112	0.081570
1113	0.081587
1114	0.081620
1115	0.081637
1117	0.081670
1118	0.081687
1119	0.081720
1120	0.081737
1121	0.081754
1123	0.081770
1124	0.081804
1125	0.081820
1126	0.081854
1127	0.081887
1129	0.081920
1130	0.081937
1132	0.081954
1134	0.081987
1135	0.082004
1136	0.082054
1137	0.082071
1138	0.082087
1139	0.082121
1140	0.082154
1141	0.082171
1143	0.082204
1146	0.082221
1147	0.082237
1148	0.082287
1149	0.082304
1150	0.082321
1151	0.082371
1152	0.082404
1153	0.082421
1155	0.082437
1156	0.082454
1157	0.082471
1158	0.082487
1159	0.082504
1160	0.082554
1161	0.082571
1162	0.082587
1164	0.082604
1165	0.082654
1168	0.082671
1169	0.082687
1170	0.082721
1171	0.082737
1173	0.082804
1174	0.082837
1175	0.082871
1176	0.082921
1177	0.082937
1178	0.082954
1180	0.082987
1181	0.083004
1184	0.083021
1185	0.083037
1186	0.083071
1188	0.083104
1190	0.083154
1191	0.083187
1192	0.083221
1194	0.083271
1196	0.083304
1197	0.083321
1200	0.083338
1206	0.083354
1209	0.083371
1210	0.083404
1211	0.083421
1212	0.083454
1214	0.083488
1215	0.083504
1216	0.083538
1217	0.083554
1218	0.083571
1221	0.083588
1222	0.083604
1223	0.083654
1224	0.083671
1225	0.083688
1226	0.083704
1227	0.083721
1230	0.083771
1235	0.083804
1236	0.083821
1237	0.083838
1238	0.083854
1239	0.083888
1240	0.083921
1242	0.083938
1243	0.083954
1244	0.083971
1245	0.083988
1247	0.084004
1248	0.084038
1251	0.084054
1253	0.084071
1256	0.084104
1258	0.084154
1259	0.084171
1260	0.084188
1261	0.084204
1262	0.084238
1269	0.084254
1270	0.084288
1273	0.084304
1274	0.084371
1276	0.084404
1277	0.084421
1278	0.084438
1281	0.084454
1282	0.084471
1283	0.084521
1284	0.084588
1285	0.084621
1286	0.084638
1288	0.084654
1290	0.084671
1291	0.084688
1296	0.084705
1300	0.084721
1301	0.084738
1306	0.084755
1307	0.084771
1309	0.084788
1311	0.084821
1312	0.084871
1313	0.084921
1317	0.084955
1318	0.084988
1319	0.085055
1320	0.085105
1321	0.085121
1322	0.085138
1323	0.085155
1326	0.085171
1327	0.085188
1328	0.085221
1330	0.085238
1331	0.085288
1332	0.085305
1335	0.085321
1337	0.085338
1338	0.085371
1342	0.085388
1346	0.085405
1347	0.085438
1350	0.085488
1351	0.085505
1353	0.085521
1354	0.085555
1355	0.085571
1356	0.085588
1357	0.085605
1359	0.085655
1360	0.085671
1361	0.085688
1365	0.085721
1366	0.085738
1369	0.085755
1372	0.085838
1373	0.085855
1376	0.085871
1379	0.085888
1382	0.085921
1383	0.085938
1384	0.085971
1385	0.085988
1388	0.086022
1389	0.086038
1390	0.086072
1391	0.086088
1392	0.086105
1394	0.086122
1396	0.086138
1399	0.086172
1400	0.086205
1401	0.086238
1402	0.086255
1404	0.086305
1405	0.086338
1409	0.086355
1411	0.086405
1412	0.086438
1413	0.086472
1416	0.086505
1417	0.086538
1418	0.086572
1419	0.086605
1420	0.086622
1421	0.086638
1422	0.086672
1424	0.086722
1427	0.086738
1429	0.086788
1430	0.086805
1433	0.086822
1434	0.086855
1436	0.086872
1438	0.086888
1439	0.086938
1443	0.086972
1445	0.086988
1446	0.087005
1448	0.087055
1449	0.087072
1450	0.087088
1451	0.087105
1452	0.087122
1453	0.087138
1454	0.087172
1455	0.087205
1457	0.087222
1458	0.087238
1459	0.087255
1461	0.087305
1464	0.087322
1465	0.087339
1468	0.087355
1469	0.087372
1470	0.087405
1471	0.087422
1472	0.087472
1473	0.087505
1474	0.087539
1475	0.087555
1478	0.087572
1479	0.087605
1480	0.087639
1483	0.087655
1484	0.087689
1485	0.087705
1486	0.087722
1487	0.087739
1488	0.087772
1491	0.087789
1494	0.087889
1495	0.087905
1500	0.087922
1502	0.087939
1503	0.087955
1504	0.087972
1511	0.087989
1512	0.088022
1514	0.088039
1518	0.088055
1520	0.088089
1521	0.088105
1522	0.088122
1523	0.088155
1524	0.088172
1525	0.088189
1526	0.088222
1527	0.088239
1528	0.088255
1529	0.088289
1533	0.088305
1534	0.088322
1536	0.088339
1538	0.088355
1539	0.088372
1540	0.088405
1541	0.088439
1546	0.088455
1549	0.088472
1550	0.088489
1551	0.088522
1552	0.088539
1555	0.088572
1556	0.088622
1557	0.088655
1558	0.088689
1560	0.088706
1561	0.088739
1562	0.088806
1563	0.088822
1565	0.088856
1566	0.088889
1568	0.088922
1570	0.088939
1571	0.088956
1573	0.088972
1574	0.088989
1576	0.089006
1577	0.089039
1578	0.089056
1579	0.089072
1580	0.089089
1582	0.089106
1583	0.089156
1587	0.089189
1588	0.089206
1589	0.089222
1590	0.089239
1592	0.089306
1594	0.089339
1597	0.089356
1598	0.089372
1601	0.089389
1602	0.089422
1606	0.089456
1607	0.089489
1608	0.089522
1610	0.089556
1613	0.089589
1614	0.089606
1615	0.089639
1617	0.089656
1628	0.089689
1632	0.089706
1633	0.089722
1634	0.089739
1635	0.089772
1636	0.089789
1638	0.089806
1639	0.089822
1640	0.089856
1641	0.089872
1644	0.089889
1645	0.089906
1646	0.089972
1647	0.089989
1648	0.090023
1651	0.090039
1652	0.090073
1653	0.090106
1658	0.090139
1659	0.090189
1660	0.090239
1661	0.090256
1663	0.090273
1666	0.090306
1667	0.090339
1669	0.090423
1670	0.090439
1671	0.090473
1672	0.090506
1674	0.090523
1675	0.090589
1677	0.090606
1681	0.090623
1682	0.090639
1685	0.090673
1695	0.090706
1696	0.090739
1700	0.090806
1703	0.090839
1710	0.090889
1711	0.090923
1712	0.090939
1713	0.090973
1714	0.090989
1716	0.091006
1717	0.091023
1721	0.091039
1722	0.091106
1723	0.091156
1725	0.091173
1726	0.091206
1729	0.091223
1732	0.091239
1733	0.091256
1735	0.091273
1736	0.091289
1739	0.091323
1741	0.091356
1742	0.091406
1743	0.091440
1744	0.091456
1745	0.091473
1746	0.091490
1749	0.091506
1750	0.091540
1751	0.091573
1752	0.091590
1753	0.091606
1755	0.091640
1756	0.091673
1757	0.091723
1758	0.091740
1759	0.091773
1760	0.091823
1761	0.091840
1764	0.091856
1765	0.091873
1766	0.091923
1767	0.091940
1769	0.091956
1771	0.091973
1773	0.091990
1774	0.092040
1775	0.092056
1776	0.092073
1780	0.092123
1783	0.092140
1789	0.092156
1796	0.092173
1797	0.092190
1798	0.092206
1799	0.092223
1800	0.092240
1801	0.092273
1804	0.092290
1807	0.092306
1809	0.092340
1811	0.092406
1812	0.092440
1813	0.092456
1814	0.092473
1815	0.092506
1817	0.092540
1819	0.092556
1820	0.092573
1822	0.092590
1825	0.092606
1832	0.092623
1833	0.092640
1834	0.092656
1835	0.092690
1837	0.092707
1838	0.092723
1841	0.092740
1842	0.092757
1843	0.092773
1844	0.092790
1849	0.092807
1853	0.092840
1854	0.092857
1855	0.092873
1857	0.092907
1859	0.092940
1860	0.092957
1862	0.092973
1863	0.092990
1866	0.093007
1867	0.093040
1871	0.093090
1872	0.093107
1873	0.093140
1874	0.093157
1875	0.093173
1876	0.093207
1877	0.093240
1878	0.093257
1880	0.093273
1881	0.093307
1883	0.093340
1884	0.093373
1886	0.093407
1888	0.093457
1889	0.093473
1890	0.093490
1892	0.093523
1894	0.093540
1896	0.093557
1898	0.093573
1899	0.093607
1900	0.093623
1901	0.093640
1903	0.093657
1904	0.093673
1906	0.093690
1907	0.093723
1908	0.093757
1909	0.093773
1911	0.093790
1914	0.093807
1918	0.093840
1919	0.093857
1921	0.093873
1922	0.093890
1924	0.093923
1925	0.093957
1928	0.093973
1930	0.093990
1931	0.094007
1932	0.094024
1933	0.094057
1937	0.094074
1939	0.094090
1941	0.094124
1942	0.094140
1943	0.094157
1945	0.094174
1946	0.094190
1947	0.094207
1949	0.094224
1952	0.094240
1955	0.094257
1958	0.094274
1964	0.094307
1966	0.094324
1968	0.094340
1971	0.094357
1973	0.094374
1974	0.094407
1975	0.094424
1977	0.094457
1978	0.094490
1979	0.094507
1980	0.094540
1983	0.094574
1986	0.094640
1987	0.094674
1988	0.094690
1989	0.094707
1991	0.094724
1992	0.094740
1993	0.094774
1997	0.094790
1998	0.094807
2000	0.094840
2001	0.094857
2002	0.094874
2004	0.094890
2006	0.094924
2009	0.094940
2010	0.094957
2013	0.094990
2015	0.095007
2017	0.095024
2019	0.095040
2023	0.095057
2027	0.095074
2030	0.095090
2031	0.095107
2032	0.095124
2033	0.095140
2038	0.095174
2040	0.095190
2041	0.095224
2044	0.095240
2055	0.095257
2056	0.095274
2059	0.095307
