key	frequency
0	0.385300
1	0.513900
2	0.604800
3	0.654400
4	0.691700
5	0.721200
6	0.742200
7	0.757900
8	0.773700
9	0.787600
10	0.797600
11	0.804600
12	0.812600
13	0.818200
14	0.826100
15	0.833200
16	0.837700
17	0.842600
18	0.847200
19	0.850800
20	0.855000
21	0.859000
22	0.861100
23	0.864300
24	0.866500
25	0.868900
26	0.871100
27	0.872300
28	0.873900
29	0.874900
30	0.877200
31	0.880000
32	0.881500
33	0.883300
34	0.884800
35	0.886000
36	0.887600
37	0.888700
38	0.890200
39	0.892000
40	0.893400
41	0.894900
42	0.896400
43	0.897400
44	0.898300
45	0.899000
46	0.900400
47	0.901100
48	0.902100
49	0.902700
50	0.903600
51	0.904200
52	0.904800
53	0.905300
54	0.906300
55	0.907100
56	0.907800
57	0.908900
58	0.909800
59	0.910700
60	0.911100
61	0.911800
62	0.913000
63	0.913600
64	0.914200
65	0.914300
66	0.915500
67	0.916300
68	0.917100
69	0.917500
70	0.917900
71	0.918600
72	0.919700
73	0.920400
74	0.920800
75	0.921100
76	0.921500
77	0.922100
78	0.922500
79	0.922800
80	0.923100
81	0.923900
82	0.924100
83	0.924500
84	0.924900
85	0.925300
86	0.925700
87	0.925800
88	0.926100
89	0.926600
90	0.926900
91	0.927200
92	0.927800
93	0.928200
94	0.928600
95	0.929000
96	0.929800
97	0.930000
98	0.930500
99	0.930900
100	0.931100
101	0.931600
102	0.932000
103	0.932200
104	0.932900
105	0.933300
106	0.933600
107	0.934200
108	0.934400
109	0.935100
111	0.935200
112	0.935400
113	0.935700
114	0.936400
115	0.936900
116	0.937100
118	0.937900
119	0.938200
120	0.938400
121	0.939100
122	0.939300
123	0.939700
124	0.940100
125	0.940200
126	0.940400
127	0.940600
128	0.940800
129	0.941100
130	0.941300
131	0.942100
132	0.942200
133	0.942500
134	0.942900
136	0.943000
137	0.943100
138	0.943300
139	0.943500
140	0.943600
141	0.943900
142	0.944100
143	0.944200
144	0.944500
145	0.944700
146	0.944900
147	0.945100
148	0.945200
149	0.945400
150	0.945500
151	0.945700
152	0.945800
154	0.946200
155	0.946300
158	0.946500
159	0.946600
161	0.946900
162	0.947500
163	0.947900
164	0.948200
166	0.948600
167	0.948700
170	0.948900
172	0.949200
173	0.949300
174	0.949500
175	0.949600
176	0.949800
177	0.950000
178	0.950400
179	0.950600
181	0.950700
183	0.950800
185	0.950900
186	0.951100
187	0.951300
188	0.951500
191	0.951600
194	0.951700
196	0.951800
199	0.951900
200	0.952200
203	0.952400
204	0.952700
205	0.952800
206	0.952900
207	0.953000
208	0.953100
209	0.953300
211	0.953500
213	0.953700
214	0.954300
215	0.954400
217	0.954500
218	0.954600
220	0.954800
221	0.954900
223	0.955100
224	0.955200
226	0.955300
227	0.955400
228	0.955600
229	0.955800
230	0.956000
231	0.956100
233	0.956300
234	0.956500
235	0.956700
236	0.957000
237	0.957100
239	0.957200
241	0.957300
242	0.957400
243	0.957500
244	0.957800
245	0.957900
246	0.958100
247	0.958200
249	0.958300
251	0.958400
254	0.958500
255	0.958600
261	0.958800
263	0.959000
271	0.959100
272	0.959200
273	0.959300
274	0.959400
276	0.959500
277	0.959600
278	0.959800
280	0.959900
282	0.960000
283	0.960100
284	0.960200
286	0.960300
289	0.960600
290	0.960700
295	0.960900
296	0.961100
298	0.961200
302	0.961500
303	0.961800
304	0.961900
308	0.962000
314	0.962100
316	0.962300
317	0.962500
318	0.962600
319	0.962700
324	0.962800
327	0.963000
328	0.963100
330	0.963300
331	0.963400
335	0.963500
337	0.963600
340	0.963700
341	0.963800
342	0.963900
343	0.964000
344	0.964100
345	0.964200
346	0.964300
351	0.964400
355	0.964500
359	0.964700
363	0.964800
366	0.964900
367	0.965000
370	0.965100
372	0.965200
378	0.965300
379	0.965400
382	0.965500
386	0.965700
394	0.965800
399	0.965900
400	0.966000
401	0.966100
402	0.966200
407	0.966300
408	0.966400
417	0.966500
418	0.966600
421	0.966800
422	0.966900
425	0.967000
430	0.967200
434	0.967300
441	0.967400
442	0.967500
446	0.967600
449	0.967700
450	0.967800
456	0.967900
461	0.968100
467	0.968200
470	0.968300
474	0.968400
475	0.968500
477	0.968600
478	0.968800
479	0.968900
480	0.969000
481	0.969100
485	0.969200
486	0.969300
488	0.969400
489	0.969600
494	0.969800
499	0.969900
500	0.970000
502	0.970100
506	0.970200
511	0.970300
513	0.970400
538	0.970500
543	0.970600
544	0.970700
547	0.970800
548	0.970900
552	0.971000
553	0.971100
555	0.971300
556	0.971400
567	0.971500
568	0.971600
571	0.971700
574	0.971800
583	0.971900
588	0.972200
597	0.972300
616	0.972400
617	0.972500
619	0.972600
621	0.972700
624	0.972800
626	0.972900
627	0.973000
629	0.973100
640	0.973200
650	0.973300
651	0.973400
653	0.973500
678	0.973600
684	0.973700
688	0.973800
689	0.973900
709	0.974000
710	0.974100
734	0.974200
738	0.974300
748	0.974400
750	0.974500
751	0.974600
753	0.974700
783	0.974900
786	0.975000
789	0.975100
811	0.975200
820	0.975300
822	0.975400
832	0.975500
833	0.975600
843	0.975700
848	0.975800
851	0.975900
867	0.976000
875	0.976100
876	0.976200
880	0.976300
887	0.976400
888	0.976500
891	0.976600
896	0.976700
898	0.976800
905	0.976900
906	0.977000
914	0.977100
915	0.977200
917	0.977300
922	0.977400
923	0.977500
946	0.977600
947	0.977700
974	0.977800
982	0.977900
990	0.978000
1002	0.978100
1012	0.978200
1013	0.978300
1024	0.978400
1052	0.978500
1061	0.978600
1087	0.978700
1090	0.978800
1117	0.978900
1130	0.979100
1135	0.979200
1141	0.979300
1152	0.979400
1173	0.979500
1174	0.979600
1176	0.979700
1191	0.979800
1227	0.979900
1240	0.980000
1246	0.980100
1247	0.980300
1253	0.980400
1256	0.980500
1262	0.980600
1271	0.980700
1278	0.980800
1280	0.980900
1282	0.981000
1288	0.981100
1290	0.981200
1291	0.981300
1313	0.981400
1322	0.981500
1339	0.981600
1351	0.981700
1355	0.981800
1358	0.981900
1390	0.982000
1393	0.982100
1408	0.982200
1413	0.982300
1458	0.982400
1496	0.982500
1541	0.982600
1542	0.982700
1549	0.982800
1590	0.982900
1656	0.983000
1669	0.983100
1693	0.983200
1697	0.983300
1704	0.983400
1716	0.983500
1742	0.983600
1754	0.983700
1758	0.983800
1765	0.983900
1824	0.984000
1845	0.984100
1849	0.984200
1851	0.984400
1900	0.984500
1902	0.984600
1915	0.984700
1916	0.984800
1967	0.984900
1977	0.985000
2017	0.985100
2040	0.985200
2049	0.985300
2061	0.985400
2080	0.985500
2179	0.985600
2238	0.985700
2276	0.985800
2283	0.985900
2317	0.986000
2349	0.986100
2414	0.986200
2427	0.986300
2436	0.986400
2440	0.986500
2453	0.986600
2501	0.986700
2517	0.986800
2535	0.986900
2548	0.987000
2600	0.987100
2606	0.987200
2620	0.987300
2641	0.987400
2649	0.987500
2654	0.987600
2760	0.987700
2805	0.987800
2862	0.987900
2881	0.988000
2890	0.988100
2911	0.988200
2935	0.988300
2959	0.988400
2968	0.988500
2969	0.988600
3030	0.988700
3121	0.988800
3137	0.988900
3183	0.989000
3225	0.989100
3439	0.989200
3513	0.989300
3566	0.989400
3671	0.989500
3762	0.989600
3773	0.989700
3946	0.989800
3967	0.989900
3978	0.990000
4084	0.990100
4413	0.990200
4489	0.990300
4597	0.990400
4706	0.990500
4750	0.990600
4812	0.990700
4824	0.990800
4863	0.990900
4881	0.991000
4991	0.991100
5287	0.991200
5448	0.991300
5476	0.991400
5624	0.991500
6021	0.991600
6096	0.991700
6122	0.991800
6510	0.991900
6756	0.992000
7061	0.992100
7182	0.992200
7204	0.992300
7471	0.992400
7912	0.992500
8181	0.992600
8298	0.992700
8312	0.992800
8388	0.992900
8545	0.993000
8615	0.993100
8773	0.993200
8792	0.993300
9287	0.993400
10243	0.993500
10407	0.993600
10977	0.993700
11100	0.993800
11461	0.993900
11484	0.994000
11501	0.994100
11642	0.994200
12576	0.994300
12781	0.994400
12949	0.994500
13317	0.994600
13701	0.994700
13826	0.994800
14274	0.994900
14401	0.995000
14490	0.995100
16974	0.995200
17271	0.995300
18436	0.995400
19529	0.995500
19749	0.995600
21155	0.995700
22044	0.995800
22579	0.995900
23096	0.996000
24209	0.996100
24873	0.996200
27508	0.996300
28594	0.996400
28773	0.996500
29225	0.996600
38914	0.996700
43321	0.996800
44286	0.996900
46904	0.997000
47935	0.997100
49798	0.997200
55618	0.997300
56363	0.997400
58965	0.997500
61805	0.997600
62753	0.997700
64273	0.997800
64501	0.997900
67245	0.998000
73095	0.998100
74654	0.998200
74964	0.998300
96107	0.998400
119455	0.998500
130160	0.998600
131530	0.998700
133769	0.998800
137260	0.998900
138626	0.999000
153541	0.999100
160414	0.999200
181032	0.999300
194451	0.999400
322572	0.999500
346978	0.999600
1051748	0.999700
2289714	0.999800
2876129	0.999900
4459270	1.000000
