key	frequency
0	0.133387
1	0.209597
2	0.267852
3	0.309102
4	0.338909
5	0.363004
6	0.383880
7	0.401555
8	0.416440
9	0.429316
10	0.441633
11	0.452834
12	0.462155
13	0.470268
14	0.477896
15	0.485301
16	0.492688
17	0.499274
18	0.505042
19	0.510364
20	0.515462
21	0.520727
22	0.525416
23	0.529825
24	0.534533
25	0.538775
26	0.542738
27	0.546534
28	0.550497
29	0.554255
30	0.557548
31	0.560563
32	0.563484
33	0.566498
34	0.568787
35	0.571429
36	0.574089
37	0.576917
38	0.579411
39	0.581699
40	0.584118
41	0.586499
42	0.588639
43	0.590723
44	0.592342
45	0.594556
46	0.596510
47	0.598370
48	0.600268
49	0.602184
50	0.604119
51	0.605980
52	0.607803
53	0.609236
54	0.610836
55	0.612548
56	0.614129
57	0.615655
58	0.617181
59	0.618595
60	0.620009
61	0.621200
62	0.622353
63	0.623916
64	0.625126
65	0.626577
66	0.627730
67	0.629070
68	0.630205
69	0.631303
70	0.632735
71	0.633722
72	0.635005
73	0.636196
74	0.637257
75	0.638261
76	0.639471
77	0.640569
78	0.641611
79	0.642615
80	0.643918
81	0.645053
82	0.646002
83	0.646950
84	0.647844
85	0.648737
86	0.649723
87	0.650783
88	0.651807
89	0.652663
90	0.653518
91	0.654505
92	0.655491
93	0.656272
94	0.657333
95	0.658021
96	0.658858
97	0.659603
98	0.660254
99	0.660998
100	0.662003
101	0.662821
102	0.663770
103	0.664403
104	0.665277
105	0.666059
106	0.666859
107	0.667919
108	0.668720
109	0.669371
110	0.669892
111	0.670543
112	0.671324
113	0.672069
114	0.672831
115	0.673538
116	0.674208
117	0.674748
118	0.675380
119	0.675901
120	0.676646
121	0.677241
122	0.677818
123	0.678544
124	0.679027
125	0.679660
126	0.680237
127	0.680869
128	0.681372
129	0.681967
130	0.682730
131	0.683307
132	0.683828
133	0.684349
134	0.685093
135	0.685614
136	0.686135
137	0.686619
138	0.687195
139	0.687754
140	0.688274
141	0.688851
142	0.689242
143	0.689763
144	0.690396
145	0.690898
146	0.691549
147	0.692089
148	0.692740
149	0.693242
150	0.693763
151	0.694247
152	0.694954
153	0.695512
154	0.695884
155	0.696331
156	0.696703
157	0.697187
158	0.697726
159	0.698210
160	0.698824
161	0.699233
162	0.699754
163	0.700127
164	0.700629
165	0.701094
166	0.701410
167	0.701745
168	0.702173
169	0.702564
170	0.703029
171	0.703550
172	0.703978
173	0.704350
174	0.704797
175	0.705262
176	0.705764
177	0.706099
178	0.706546
179	0.707067
180	0.707420
181	0.707885
182	0.708053
183	0.708425
184	0.708741
185	0.709113
186	0.709504
187	0.709820
188	0.710099
189	0.710378
190	0.710658
191	0.711123
192	0.711513
193	0.711923
194	0.712295
195	0.712630
196	0.712834
197	0.713300
198	0.713560
199	0.713783
200	0.714137
201	0.714490
202	0.714881
203	0.715272
204	0.715551
205	0.716016
206	0.716444
207	0.716630
208	0.716965
209	0.717300
210	0.717523
211	0.717765
212	0.718137
213	0.718286
214	0.718565
215	0.718919
216	0.719216
217	0.719570
218	0.719830
219	0.720147
220	0.720649
221	0.721002
222	0.721263
223	0.721523
224	0.721858
225	0.722230
226	0.722603
227	0.722900
228	0.723161
229	0.723384
230	0.723645
231	0.723924
232	0.724147
233	0.724407
234	0.724631
235	0.724910
236	0.725245
237	0.725449
238	0.725728
239	0.726008
240	0.726287
241	0.726566
242	0.726845
243	0.727087
244	0.727329
245	0.727552
246	0.727775
247	0.728129
248	0.728575
249	0.728817
250	0.729022
251	0.729282
252	0.729505
253	0.729840
254	0.730026
255	0.730231
256	0.730492
257	0.730696
258	0.731013
259	0.731310
260	0.731515
261	0.731943
262	0.732241
263	0.732520
264	0.732799
265	0.733022
266	0.733171
267	0.733376
268	0.733655
269	0.733952
270	0.734194
271	0.734417
272	0.734678
273	0.734808
274	0.735013
275	0.735329
276	0.735627
277	0.735906
278	0.736166
279	0.736408
280	0.736594
281	0.736855
282	0.737060
283	0.737376
284	0.737469
285	0.737748
286	0.738046
287	0.738232
288	0.738418
289	0.738567
290	0.738771
291	0.739032
292	0.739311
293	0.739590
294	0.739869
295	0.740092
296	0.740278
297	0.740502
298	0.740706
299	0.740855
300	0.741153
301	0.741264
302	0.741432
303	0.741562
304	0.741878
305	0.742065
306	0.742269
307	0.742437
308	0.742548
309	0.742883
310	0.743069
311	0.743274
312	0.743534
313	0.743758
314	0.744074
315	0.744297
316	0.744409
317	0.744576
318	0.744874
319	0.745209
320	0.745358
321	0.745544
322	0.745730
323	0.745935
324	0.746139
325	0.746456
326	0.746697
327	0.746846
328	0.747014
329	0.747163
330	0.747367
331	0.747479
332	0.747609
333	0.747758
334	0.747981
335	0.748186
336	0.748316
337	0.748577
338	0.748688
339	0.748912
340	0.749060
341	0.749284
342	0.749470
343	0.749693
344	0.749860
345	0.750140
346	0.750270
347	0.750474
348	0.750698
349	0.750772
350	0.750977
351	0.751181
352	0.751423
353	0.751572
354	0.751702
355	0.751758
356	0.751926
357	0.752149
358	0.752391
359	0.752521
360	0.752577
361	0.752782
362	0.752986
363	0.753117
364	0.753228
365	0.753414
366	0.753656
367	0.753749
368	0.753917
369	0.754103
370	0.754233
371	0.754456
372	0.754624
373	0.754828
374	0.754921
375	0.755126
376	0.755256
377	0.755368
378	0.755498
379	0.755759
380	0.755907
381	0.756019
382	0.756187
383	0.756335
384	0.756503
385	0.756670
386	0.756707
387	0.756819
388	0.757005
389	0.757266
390	0.757415
391	0.757619
392	0.757768
393	0.757805
394	0.757898
395	0.758029
396	0.758233
397	0.758419
398	0.758549
399	0.758754
400	0.758996
401	0.759219
402	0.759312
403	0.759480
404	0.759591
405	0.759815
406	0.759926
407	0.760057
408	0.760187
409	0.760298
410	0.760447
411	0.760689
412	0.760782
413	0.760968
414	0.761136
415	0.761303
416	0.761433
417	0.761694
418	0.761936
419	0.762140
420	0.762215
421	0.762382
422	0.762457
423	0.762661
424	0.762866
425	0.762959
426	0.763071
427	0.763275
428	0.763443
429	0.763610
430	0.763759
431	0.763852
432	0.763927
433	0.764113
434	0.764317
435	0.764466
436	0.764559
437	0.764634
438	0.764913
439	0.765080
440	0.765173
441	0.765248
442	0.765378
443	0.765508
444	0.765601
445	0.765620
446	0.765657
447	0.765769
448	0.766010
449	0.766048
450	0.766141
451	0.766271
452	0.766420
453	0.766569
454	0.766755
455	0.766866
456	0.767015
457	0.767145
458	0.767257
459	0.767332
460	0.767443
461	0.767592
462	0.767722
463	0.767815
464	0.768001
465	0.768132
466	0.768243
467	0.768299
468	0.768411
469	0.768504
470	0.768597
471	0.768708
472	0.768820
473	0.768932
474	0.769062
475	0.769248
476	0.769508
477	0.769601
478	0.769694
479	0.769862
480	0.769936
481	0.770011
482	0.770141
483	0.770253
484	0.770364
485	0.770588
486	0.770736
487	0.770904
488	0.771016
489	0.771164
490	0.771295
491	0.771462
492	0.771574
493	0.771704
494	0.771834
495	0.771946
496	0.772057
497	0.772169
498	0.772467
499	0.772634
500	0.772802
501	0.772969
502	0.773099
503	0.773192
504	0.773267
505	0.773397
506	0.773527
507	0.773658
508	0.773769
509	0.773862
510	0.774011
511	0.774160
512	0.774290
513	0.774458
514	0.774532
515	0.774644
516	0.774774
517	0.774997
518	0.775072
519	0.775165
520	0.775295
521	0.775332
522	0.775481
523	0.775648
524	0.775760
525	0.775872
526	0.775983
527	0.776114
528	0.776169
529	0.776188
530	0.776262
531	0.776355
532	0.776523
533	0.776579
534	0.776746
535	0.776839
536	0.776951
537	0.777100
538	0.777211
539	0.777323
540	0.777397
541	0.777565
542	0.777732
543	0.777844
544	0.777937
545	0.778067
546	0.778216
547	0.778290
548	0.778346
549	0.778439
550	0.778514
551	0.778607
552	0.778774
553	0.778923
554	0.779035
555	0.779091
556	0.779239
557	0.779277
558	0.779388
559	0.779463
560	0.779612
561	0.779686
562	0.779798
563	0.779835
564	0.779928
566	0.780021
567	0.780151
568	0.780263
569	0.780319
570	0.780412
571	0.780505
572	0.780672
573	0.780784
574	0.780877
575	0.780895
576	0.781081
577	0.781193
578	0.781342
579	0.781454
580	0.781602
581	0.781677
582	0.781751
583	0.781863
584	0.781974
585	0.782123
586	0.782254
587	0.782328
588	0.782495
589	0.782551
590	0.782682
591	0.782793
592	0.782868
593	0.782923
594	0.782998
595	0.783147
596	0.783314
597	0.783426
598	0.783463
599	0.783482
600	0.783575
601	0.783723
602	0.783779
603	0.783891
604	0.784003
605	0.784077
606	0.784133
607	0.784207
608	0.784263
609	0.784300
610	0.784412
611	0.784486
612	0.784542
613	0.784579
614	0.784691
615	0.784765
616	0.784821
617	0.784877
618	0.784970
619	0.785026
620	0.785044
621	0.785175
622	0.785305
623	0.785510
624	0.785584
625	0.785640
626	0.785696
627	0.785826
628	0.785900
629	0.785993
630	0.786031
631	0.786086
632	0.786142
633	0.786217
634	0.786310
635	0.786403
636	0.786459
637	0.786570
638	0.786645
639	0.786738
640	0.786812
641	0.786886
642	0.787054
643	0.787091
644	0.787240
645	0.787352
646	0.787407
647	0.787519
648	0.787612
649	0.787687
650	0.787780
651	0.787873
652	0.787966
653	0.788059
654	0.788152
655	0.788226
656	0.788375
657	0.788449
658	0.788487
659	0.788542
660	0.788617
661	0.788691
662	0.788803
663	0.788933
664	0.789008
665	0.789063
666	0.789119
667	0.789212
668	0.789305
669	0.789398
670	0.789454
671	0.789566
672	0.789603
673	0.789640
674	0.789677
675	0.789752
676	0.789770
677	0.789826
678	0.789882
679	0.789994
680	0.790105
681	0.790143
682	0.790217
683	0.790236
684	0.790384
685	0.790515
686	0.790570
687	0.790589
688	0.790663
689	0.790701
690	0.790794
691	0.790850
692	0.790980
693	0.791054
694	0.791073
695	0.791110
696	0.791184
697	0.791222
698	0.791259
699	0.791296
700	0.791426
701	0.791519
702	0.791557
703	0.791612
704	0.791724
705	0.791854
706	0.791929
707	0.792040
708	0.792152
709	0.792171
710	0.792208
711	0.792319
712	0.792394
713	0.792450
714	0.792524
715	0.792617
716	0.792673
717	0.792692
718	0.792729
719	0.792747
720	0.792822
721	0.792915
722	0.793026
723	0.793194
724	0.793250
725	0.793380
726	0.793492
727	0.793547
728	0.793640
729	0.793733
730	0.793808
731	0.793864
732	0.793920
733	0.794013
734	0.794050
735	0.794161
736	0.794180
737	0.794310
738	0.794385
739	0.794478
740	0.794589
741	0.794682
742	0.794757
743	0.794813
744	0.794906
745	0.795017
746	0.795148
747	0.795203
748	0.795259
749	0.795315
750	0.795352
751	0.795389
752	0.795445
753	0.795520
754	0.795557
755	0.795631
756	0.795743
757	0.795817
759	0.795948
761	0.795966
762	0.796059
763	0.796171
765	0.796208
766	0.796320
767	0.796394
768	0.796413
769	0.796543
770	0.796673
771	0.796803
772	0.796859
773	0.796952
774	0.797027
775	0.797083
776	0.797157
777	0.797176
778	0.797269
779	0.797324
780	0.797399
781	0.797436
782	0.797511
783	0.797566
784	0.797659
785	0.797715
786	0.797790
787	0.797883
788	0.797920
789	0.798013
790	0.798087
791	0.798106
792	0.798143
793	0.798255
794	0.798348
795	0.798441
796	0.798515
797	0.798571
799	0.798645
800	0.798720
801	0.798813
802	0.798887
803	0.798999
804	0.799055
805	0.799204
806	0.799259
807	0.799278
808	0.799408
809	0.799483
810	0.799576
811	0.799669
812	0.799762
813	0.799780
814	0.799873
815	0.799948
816	0.800004
817	0.800078
818	0.800208
819	0.800246
820	0.800283
821	0.800320
822	0.800357
823	0.800394
824	0.800525
825	0.800636
826	0.800674
827	0.800748
828	0.800785
829	0.800878
830	0.800934
831	0.801008
832	0.801064
833	0.801139
834	0.801213
835	0.801250
836	0.801288
837	0.801362
838	0.801418
839	0.801492
840	0.801604
841	0.801641
842	0.801678
843	0.801734
845	0.801809
846	0.801864
848	0.801939
849	0.801995
850	0.802069
851	0.802125
852	0.802181
853	0.802236
854	0.802348
855	0.802404
856	0.802478
857	0.802553
858	0.802571
859	0.802702
860	0.802757
861	0.802813
862	0.802888
863	0.802962
864	0.803037
865	0.803055
867	0.803130
868	0.803185
869	0.803241
870	0.803316
871	0.803334
872	0.803409
873	0.803427
874	0.803446
875	0.803502
876	0.803557
877	0.803595
878	0.803688
879	0.803725
880	0.803799
881	0.803818
882	0.803874
883	0.803930
884	0.803985
885	0.804116
886	0.804153
887	0.804190
888	0.804246
889	0.804302
890	0.804339
891	0.804432
892	0.804451
893	0.804544
894	0.804562
896	0.804748
897	0.804841
898	0.804916
899	0.805009
900	0.805102
901	0.805139
903	0.805232
904	0.805269
905	0.805362
906	0.805474
907	0.805493
908	0.805548
910	0.805623
911	0.805734
912	0.805772
913	0.805827
914	0.805902
915	0.806032
916	0.806088
917	0.806125
918	0.806144
919	0.806181
920	0.806293
921	0.806311
922	0.806404
923	0.806441
924	0.806460
925	0.806553
926	0.806609
927	0.806665
928	0.806721
929	0.806758
930	0.806795
931	0.806832
932	0.806907
933	0.806962
934	0.807018
935	0.807074
937	0.807167
938	0.807186
939	0.807297
940	0.807334
941	0.807353
942	0.807446
944	0.807483
945	0.807539
946	0.807614
948	0.807651
949	0.807688
950	0.807725
951	0.807781
952	0.807800
953	0.807837
954	0.807893
955	0.807948
956	0.807986
957	0.808023
958	0.808042
959	0.808079
961	0.808153
962	0.808209
963	0.808283
964	0.808302
965	0.808321
966	0.808376
968	0.808432
969	0.808488
970	0.808618
971	0.808711
972	0.808749
973	0.808767
975	0.808842
976	0.808860
977	0.808953
978	0.808990
979	0.809065
980	0.809102
981	0.809121
982	0.809158
983	0.809195
984	0.809325
985	0.809344
986	0.809400
987	0.809437
988	0.809493
989	0.809567
990	0.809660
991	0.809735
992	0.809753
993	0.809809
995	0.809865
996	0.809921
997	0.809939
998	0.809958
999	0.809995
1000	0.810088
1001	0.810107
1002	0.810163
1003	0.810200
1004	0.810256
1005	0.810293
1006	0.810311
1007	0.810386
1009	0.810479
1010	0.810498
1011	0.810572
1012	0.810609
1013	0.810628
1014	0.810702
1015	0.810739
1016	0.810777
1017	0.810832
1018	0.810870
1019	0.810888
1020	0.810907
1022	0.811000
1023	0.811018
1024	0.811112
1025	0.811205
1026	0.811223
1027	0.811242
1028	0.811279
1029	0.811316
1031	0.811372
1032	0.811539
1033	0.811577
1034	0.811651
1035	0.811688
1036	0.811726
1037	0.811781
1038	0.811819
1039	0.811856
1040	0.811874
1041	0.811893
1042	0.811912
1043	0.811930
1044	0.811986
1045	0.812060
1046	0.812079
1047	0.812135
1048	0.812191
1049	0.812246
1050	0.812302
1052	0.812321
1053	0.812451
1054	0.812526
1055	0.812563
1056	0.812637
1057	0.812674
1058	0.812712
1059	0.812767
1060	0.812860
1061	0.812916
1062	0.812954
1063	0.812991
1064	0.813047
1065	0.813102
1066	0.813121
1067	0.813140
1068	0.813214
1069	0.813233
1070	0.813270
1071	0.813419
1072	0.813437
1073	0.813474
1074	0.813512
1075	0.813549
1076	0.813623
1077	0.813716
1079	0.813754
1081	0.813791
1082	0.813847
1083	0.813902
1084	0.813958
1086	0.813995
1087	0.814051
1089	0.814088
1090	0.814107
1091	0.814182
1092	0.814256
1093	0.814330
1094	0.814386
1095	0.814461
1096	0.814498
1097	0.814554
1098	0.814572
1099	0.814591
1100	0.814647
1101	0.814758
1102	0.814796
1103	0.814833
1104	0.814889
1105	0.814963
1106	0.814982
1107	0.815000
1108	0.815075
1109	0.815168
1110	0.815205
1111	0.815261
1112	0.815354
1113	0.815410
1115	0.815447
1116	0.815484
1117	0.815521
1119	0.815596
1120	0.815633
1121	0.815651
1122	0.815689
1123	0.815707
1125	0.815744
1126	0.815782
1127	0.815837
1128	0.815875
1129	0.815893
1131	0.815986
1132	0.816098
1133	0.816154
1134	0.816228
1135	0.816265
1136	0.816303
1137	0.816340
1138	0.816396
1139	0.816414
1141	0.816470
1142	0.816507
1143	0.816582
1144	0.816693
1145	0.816749
1146	0.816805
1147	0.816824
1148	0.816861
1149	0.816935
1150	0.816972
1151	0.817103
1152	0.817140
1153	0.817214
1154	0.817233
1155	0.817270
1156	0.817307
1157	0.817363
1158	0.817400
1159	0.817438
1160	0.817456
1161	0.817475
1162	0.817493
1163	0.817568
1165	0.817605
1166	0.817679
1167	0.817754
1168	0.817772
1170	0.817791
1171	0.817847
1172	0.817940
1173	0.818014
1174	0.818089
1175	0.818145
1176	0.818200
1177	0.818256
1178	0.818293
1179	0.818331
1180	0.818349
1181	0.818386
1182	0.818517
1183	0.818535
1184	0.818610
1186	0.818628
1187	0.818740
1188	0.818796
1189	0.818870
1190	0.818907
1191	0.818926
1193	0.818982
1194	0.819019
1195	0.819075
1196	0.819094
1197	0.819112
1198	0.819131
1199	0.819149
1200	0.819187
1202	0.819242
1203	0.819261
1204	0.819298
1205	0.819335
1206	0.819354
1207	0.819410
1208	0.819466
1209	0.819577
1211	0.819596
1212	0.819708
1213	0.819801
1214	0.819819
1215	0.819875
1216	0.819894
1217	0.819968
1219	0.820024
1220	0.820061
1221	0.820098
1222	0.820135
1223	0.820191
1224	0.820247
1225	0.820266
1226	0.820303
1227	0.820322
1228	0.820396
1229	0.820415
1230	0.820433
1231	0.820452
1233	0.820526
1235	0.820582
1236	0.820638
1239	0.820656
1240	0.820712
1241	0.820749
1242	0.820805
1243	0.820861
1244	0.820898
1245	0.820936
1246	0.820991
1247	0.821029
1248	0.821047
1250	0.821066
1251	0.821140
1253	0.821159
1254	0.821177
1255	0.821196
1256	0.821233
1257	0.821289
1258	0.821345
1259	0.821401
1261	0.821438
1262	0.821531
1263	0.821550
1264	0.821568
1265	0.821587
1266	0.821643
1267	0.821661
1268	0.821680
1269	0.821698
1270	0.821754
1271	0.821810
1272	0.821884
1273	0.821903
1274	0.821959
1276	0.821977
1277	0.821996
1278	0.822052
1279	0.822145
1281	0.822238
1282	0.822257
1283	0.822294
1284	0.822312
1286	0.822387
1287	0.822461
1288	0.822498
1289	0.822554
1290	0.822647
1291	0.822703
1292	0.822722
1293	0.822796
1295	0.822833
1296	0.822852
1297	0.822871
1298	0.822964
1299	0.823001
1300	0.823057
1301	0.823094
1302	0.823168
1303	0.823224
1304	0.823280
1305	0.823298
1306	0.823317
1308	0.823373
1309	0.823410
1310	0.823447
1311	0.823466
1312	0.823522
1313	0.823559
1314	0.823596
1315	0.823633
1316	0.823652
1318	0.823708
1319	0.823726
1320	0.823801
1321	0.823857
1322	0.823912
1323	0.823950
1324	0.824006
1325	0.824061
1326	0.824173
1328	0.824210
1329	0.824285
1331	0.824340
1332	0.824359
1333	0.824415
1334	0.824452
1335	0.824508
1336	0.824545
1337	0.824582
1338	0.824620
1339	0.824675
1340	0.824731
1341	0.824787
1342	0.824843
1343	0.824880
1344	0.824899
1345	0.824936
1346	0.824992
1347	0.825066
1348	0.825085
1349	0.825122
1350	0.825159
1351	0.825196
1352	0.825215
1353	0.825252
1354	0.825289
1355	0.825327
1356	0.825345
1357	0.825364
1358	0.825420
1359	0.825457
1360	0.825550
1361	0.825568
1362	0.825587
1363	0.825624
1364	0.825643
1365	0.825717
1366	0.825754
1367	0.825792
1368	0.825829
1369	0.825848
1370	0.825885
1371	0.825978
1373	0.825996
1375	0.826015
1376	0.826071
1377	0.826108
1378	0.826164
1379	0.826220
1380	0.826313
1381	0.826331
1382	0.826406
1383	0.826424
1384	0.826480
1385	0.826536
1388	0.826592
1389	0.826629
1391	0.826648
1392	0.826703
1393	0.826778
1394	0.826815
1396	0.826834
1397	0.826889
1398	0.826964
1399	0.826982
1400	0.827001
1402	0.827020
1403	0.827038
1404	0.827057
1405	0.827131
1406	0.827187
1407	0.827206
1408	0.827224
1409	0.827243
1410	0.827317
1411	0.827336
1413	0.827355
1415	0.827392
1416	0.827466
1417	0.827485
1418	0.827503
1421	0.827522
1422	0.827559
1423	0.827615
1424	0.827671
1425	0.827727
1426	0.827745
1427	0.827820
1429	0.827876
1430	0.827931
1431	0.827950
1432	0.828006
1433	0.828024
1434	0.828062
1436	0.828080
1437	0.828117
1438	0.828136
1439	0.828192
1440	0.828210
1441	0.828229
1442	0.828266
1443	0.828304
1444	0.828322
1445	0.828359
1447	0.828415
1449	0.828434
1450	0.828471
1451	0.828490
1452	0.828527
1453	0.828583
1454	0.828638
1455	0.828676
1456	0.828750
1457	0.828769
1458	0.828843
1460	0.828880
1461	0.828918
1462	0.828955
1464	0.829029
1465	0.829048
1466	0.829085
1467	0.829122
1469	0.829141
1470	0.829159
1471	0.829252
1472	0.829271
1474	0.829364
1476	0.829383
1477	0.829420
1478	0.829457
1479	0.829476
1481	0.829513
1482	0.829550
1483	0.829569
1484	0.829587
1486	0.829606
1487	0.829643
1488	0.829718
1490	0.829736
1491	0.829755
1492	0.829792
1493	0.829848
1494	0.829866
1495	0.829885
1496	0.829904
1497	0.829922
1498	0.829941
1499	0.829959
1500	0.830015
1501	0.830034
1502	0.830090
1503	0.830108
1504	0.830127
1505	0.830164
1506	0.830201
1508	0.830220
1509	0.830239
1511	0.830276
1512	0.830313
1513	0.830369
1514	0.830387
1515	0.830406
1517	0.830462
1518	0.830499
1520	0.830555
1521	0.830573
1522	0.830592
1523	0.830611
1524	0.830629
1525	0.830666
1526	0.830722
1529	0.830741
1530	0.830797
1533	0.830815
1536	0.830853
1538	0.830890
1540	0.830908
1541	0.830927
1542	0.830946
1543	0.831020
1544	0.831039
1545	0.831076
1546	0.831132
1547	0.831187
1548	0.831243
1549	0.831262
1550	0.831336
1555	0.831373
1557	0.831411
1560	0.831429
1561	0.831467
1562	0.831485
1563	0.831541
1564	0.831597
1565	0.831634
1566	0.831671
1569	0.831708
1570	0.831727
1571	0.831783
1572	0.831801
1573	0.831857
1575	0.831894
1576	0.831950
1577	0.831969
1578	0.831987
1579	0.832043
1580	0.832099
1581	0.832118
1582	0.832155
1583	0.832174
1584	0.832211
1585	0.832229
1586	0.832248
1587	0.832304
1588	0.832322
1590	0.832397
1591	0.832415
1593	0.832453
1594	0.832508
1595	0.832546
1596	0.832564
1598	0.832583
1599	0.832676
1600	0.832695
1601	0.832713
1603	0.832732
1604	0.832750
1605	0.832769
1606	0.832788
