key	frequency
0	0.031082
1	0.048039
2	0.061259
3	0.071447
4	0.079607
5	0.086644
6	0.092777
7	0.098055
8	0.102361
9	0.106734
10	0.110688
11	0.114626
12	0.117910
13	0.121278
14	0.124127
15	0.126791
16	0.129472
17	0.131767
18	0.134046
19	0.136375
20	0.138436
21	0.140497
22	0.142524
23	0.144451
24	0.146496
25	0.148020
26	0.149947
27	0.151573
28	0.153298
29	0.154706
30	0.156331
31	0.158074
32	0.159314
33	0.160503
34	0.161760
35	0.163117
36	0.164374
37	0.165580
38	0.166586
39	0.167876
40	0.169066
41	0.170222
42	0.171261
43	0.172266
44	0.173204
45	0.174344
46	0.175366
47	0.176405
48	0.177175
49	0.178130
50	0.179152
51	0.180091
52	0.181180
53	0.182169
54	0.182973
55	0.183827
56	0.184766
57	0.185419
58	0.186089
59	0.186877
60	0.187480
61	0.188318
62	0.189374
63	0.190262
64	0.191066
65	0.191686
66	0.192339
67	0.192959
68	0.193479
69	0.194132
70	0.194819
71	0.195439
72	0.196461
73	0.197131
74	0.197936
75	0.198673
76	0.199310
77	0.199879
78	0.200332
79	0.200868
80	0.201639
81	0.202225
82	0.202929
83	0.203482
84	0.204052
85	0.204571
86	0.205157
87	0.205643
88	0.206180
89	0.206749
90	0.207553
91	0.207905
92	0.208240
93	0.208643
94	0.209145
95	0.209564
96	0.210067
97	0.210653
98	0.211173
99	0.211860
100	0.212396
101	0.213049
102	0.213418
103	0.213787
104	0.214273
105	0.214809
106	0.215194
107	0.215579
108	0.215931
109	0.216300
110	0.216702
111	0.217238
112	0.217657
113	0.218076
114	0.218562
115	0.219081
116	0.219567
117	0.219953
118	0.220355
119	0.220824
120	0.221461
121	0.221880
122	0.222165
123	0.222667
124	0.223036
125	0.223555
126	0.224058
127	0.224577
128	0.224879
129	0.225382
130	0.225750
131	0.226069
132	0.226353
133	0.226756
134	0.227091
135	0.227392
136	0.227778
137	0.228163
138	0.228582
139	0.228984
140	0.229453
141	0.229822
142	0.230140
143	0.230492
144	0.230844
145	0.231213
146	0.231749
147	0.232218
148	0.232654
149	0.233056
150	0.233374
151	0.233726
152	0.233994
153	0.234346
154	0.234731
155	0.235167
156	0.235435
157	0.235720
158	0.236072
159	0.236407
160	0.236658
161	0.237027
162	0.237328
163	0.237747
164	0.237999
165	0.238401
166	0.238753
167	0.239021
168	0.239306
169	0.239590
170	0.239758
171	0.240093
172	0.240328
173	0.240680
174	0.240847
175	0.241182
176	0.241501
177	0.241936
178	0.242355
179	0.242540
180	0.242824
181	0.243193
182	0.243511
183	0.243880
184	0.244115
185	0.244500
186	0.244667
187	0.244885
188	0.245204
189	0.245522
190	0.245824
191	0.246192
192	0.246343
193	0.246628
194	0.246980
195	0.247231
196	0.247650
197	0.248035
198	0.248186
199	0.248555
200	0.248940
201	0.249192
202	0.249510
203	0.249845
204	0.250080
205	0.250214
206	0.250599
207	0.250884
208	0.251269
209	0.251588
210	0.251805
211	0.252023
212	0.252291
213	0.252643
214	0.252844
215	0.253129
216	0.253380
217	0.253582
218	0.253883
219	0.254101
220	0.254319
221	0.254654
222	0.255006
223	0.255190
224	0.255458
225	0.255710
226	0.256095
227	0.256313
228	0.256748
229	0.256983
230	0.257285
231	0.257569
232	0.257804
233	0.257972
234	0.258156
235	0.258491
236	0.258759
237	0.258927
238	0.259211
239	0.259496
240	0.259664
241	0.259831
242	0.260016
243	0.260250
244	0.260451
245	0.260803
246	0.261055
247	0.261272
248	0.261624
249	0.261876
250	0.262211
251	0.262462
252	0.262630
253	0.262881
254	0.263049
255	0.263283
256	0.263534
257	0.263719
258	0.263970
259	0.264154
260	0.264255
261	0.264540
262	0.264758
263	0.264992
264	0.265177
265	0.265361
266	0.265595
267	0.265780
268	0.266031
269	0.266266
270	0.266400
271	0.266550
272	0.266785
273	0.266953
274	0.267288
275	0.267606
276	0.267908
277	0.268142
278	0.268260
279	0.268377
280	0.268561
281	0.268796
282	0.269014
283	0.269231
284	0.269432
285	0.269734
286	0.269985
287	0.270237
288	0.270337
289	0.270522
290	0.270723
291	0.270941
292	0.271142
293	0.271393
294	0.271594
295	0.271862
296	0.271996
297	0.272130
298	0.272398
299	0.272549
300	0.272717
301	0.272851
302	0.273119
303	0.273437
304	0.273638
305	0.273755
306	0.273957
307	0.274124
308	0.274275
309	0.274442
310	0.274560
311	0.274660
312	0.274861
313	0.275129
314	0.275263
315	0.275448
316	0.275615
317	0.275934
318	0.276219
319	0.276353
320	0.276403
321	0.276554
322	0.276755
323	0.276939
324	0.277157
325	0.277442
326	0.277593
327	0.277877
328	0.278028
329	0.278179
330	0.278380
331	0.278514
332	0.278682
333	0.278899
334	0.279084
335	0.279251
336	0.279469
337	0.279637
338	0.279737
339	0.279972
340	0.280156
341	0.280307
342	0.280491
343	0.280726
344	0.280893
345	0.281011
346	0.281145
347	0.281279
348	0.281480
349	0.281647
350	0.281848
351	0.282050
352	0.282184
353	0.282385
354	0.282603
355	0.282770
356	0.282904
357	0.282988
358	0.283088
359	0.283273
360	0.283424
361	0.283608
362	0.283725
363	0.283893
364	0.284010
365	0.284194
366	0.284395
367	0.284580
368	0.284865
369	0.284982
370	0.285066
371	0.285300
372	0.285350
373	0.285468
374	0.285568
375	0.285769
376	0.285887
377	0.285987
378	0.286104
379	0.286188
380	0.286456
381	0.286557
382	0.286691
383	0.286858
384	0.287060
385	0.287344
386	0.287445
387	0.287629
388	0.287914
389	0.288015
390	0.288115
391	0.288316
392	0.288383
393	0.288434
394	0.288618
395	0.288718
396	0.288919
397	0.289120
398	0.289271
399	0.289389
400	0.289573
401	0.289724
402	0.289874
403	0.290092
404	0.290260
405	0.290411
406	0.290528
407	0.290578
408	0.290662
409	0.290830
410	0.290980
411	0.291081
412	0.291265
413	0.291416
414	0.291667
415	0.291718
416	0.291835
417	0.292019
418	0.292103
419	0.292271
420	0.292405
421	0.292539
422	0.292740
423	0.292907
424	0.293075
425	0.293192
426	0.293309
427	0.293510
428	0.293728
429	0.293829
430	0.293896
431	0.294080
432	0.294348
433	0.294466
434	0.294616
435	0.294667
436	0.294834
437	0.294968
438	0.295119
439	0.295169
440	0.295320
441	0.295437
442	0.295538
443	0.295756
444	0.295890
445	0.296007
446	0.296057
447	0.296275
448	0.296392
449	0.296460
450	0.296644
451	0.296811
452	0.296912
453	0.296929
454	0.297029
455	0.297163
456	0.297331
457	0.297482
458	0.297549
459	0.297649
460	0.297733
461	0.297833
462	0.297951
463	0.298051
464	0.298202
465	0.298286
466	0.298470
467	0.298587
468	0.298872
469	0.298956
470	0.299040
471	0.299140
472	0.299191
473	0.299308
474	0.299476
475	0.299660
476	0.299744
477	0.299894
478	0.300012
479	0.300096
480	0.300129
481	0.300230
482	0.300313
483	0.300431
484	0.300548
485	0.300699
486	0.300850
487	0.300933
488	0.301134
489	0.301218
490	0.301319
491	0.301402
492	0.301604
493	0.301754
494	0.301972
495	0.302039
496	0.302123
497	0.302274
498	0.302391
499	0.302475
500	0.302609
501	0.302676
502	0.302760
503	0.302793
504	0.302877
505	0.303078
506	0.303279
507	0.303581
508	0.303614
509	0.303664
510	0.303748
511	0.303882
512	0.303966
513	0.304100
514	0.304251
515	0.304335
516	0.304435
517	0.304519
518	0.304620
519	0.304720
520	0.304871
521	0.305038
522	0.305139
523	0.305273
524	0.305374
525	0.305457
526	0.305541
527	0.305658
528	0.305859
529	0.306027
530	0.306094
531	0.306278
532	0.306362
533	0.306429
534	0.306580
535	0.306714
536	0.306831
537	0.306898
538	0.306982
539	0.307099
540	0.307166
541	0.307284
542	0.307384
543	0.307569
544	0.307686
545	0.307770
546	0.307904
547	0.308054
548	0.308205
549	0.308256
550	0.308339
551	0.308440
552	0.308557
553	0.308674
554	0.308792
555	0.308892
556	0.309043
557	0.309261
558	0.309462
559	0.309495
560	0.309613
561	0.309663
562	0.309780
563	0.309965
564	0.310082
565	0.310132
566	0.310266
567	0.310333
568	0.310417
569	0.310534
570	0.310618
571	0.310735
572	0.310802
573	0.311020
574	0.311154
575	0.311238
576	0.311322
577	0.311422
578	0.311506
579	0.311640
580	0.311758
581	0.311858
582	0.311975
583	0.312059
584	0.312210
585	0.312344
586	0.312461
587	0.312545
588	0.312612
589	0.312696
590	0.312780
591	0.312897
592	0.313014
593	0.313098
594	0.313215
595	0.313333
596	0.313433
597	0.313550
598	0.313601
599	0.313668
600	0.313718
601	0.313869
602	0.313936
603	0.314036
604	0.314120
605	0.314237
606	0.314371
607	0.314489
608	0.314589
609	0.314740
610	0.314841
611	0.314874
612	0.314991
613	0.315092
614	0.315192
615	0.315293
616	0.315377
617	0.315477
618	0.315678
619	0.315863
620	0.315946
621	0.316064
622	0.316164
623	0.316282
624	0.316382
625	0.316499
626	0.316617
627	0.316667
628	0.316784
629	0.316935
630	0.317052
631	0.317153
632	0.317220
633	0.317337
634	0.317404
635	0.317538
636	0.317572
637	0.317656
638	0.317790
639	0.317873
640	0.317974
641	0.318074
642	0.318141
643	0.318225
644	0.318359
645	0.318443
646	0.318527
647	0.318577
648	0.318627
649	0.318745
650	0.318812
651	0.318879
652	0.318979
653	0.319080
654	0.319097
655	0.319113
656	0.319180
657	0.319231
659	0.319331
660	0.319415
661	0.319448
662	0.319532
663	0.319616
664	0.319733
665	0.319851
666	0.319951
667	0.320035
668	0.320119
669	0.320202
670	0.320286
671	0.320370
672	0.320471
673	0.320554
674	0.320672
675	0.320739
676	0.320755
677	0.320873
678	0.320973
679	0.321057
680	0.321090
681	0.321208
682	0.321275
683	0.321359
684	0.321593
685	0.321710
686	0.321895
687	0.321962
688	0.322029
689	0.322213
690	0.322330
691	0.322397
692	0.322615
693	0.322699
694	0.322800
695	0.322917
696	0.322950
697	0.323068
698	0.323135
699	0.323269
700	0.323436
701	0.323537
702	0.323604
703	0.323688
704	0.323822
705	0.323905
706	0.323972
707	0.324023
708	0.324106
709	0.324241
710	0.324375
711	0.324475
712	0.324559
713	0.324676
714	0.324726
715	0.324861
716	0.324995
717	0.325129
718	0.325212
719	0.325330
720	0.325430
721	0.325497
722	0.325581
723	0.325665
724	0.325782
725	0.325849
726	0.325933
727	0.326050
728	0.326117
729	0.326167
730	0.326335
731	0.326419
732	0.326536
733	0.326637
734	0.326737
735	0.326787
736	0.326938
737	0.327039
738	0.327139
739	0.327190
740	0.327324
741	0.327474
742	0.327575
743	0.327659
744	0.327709
745	0.327776
746	0.327826
747	0.327910
748	0.327994
749	0.328111
750	0.328128
751	0.328228
752	0.328346
753	0.328413
754	0.328513
755	0.328580
756	0.328664
757	0.328748
758	0.328832
759	0.328882
760	0.329033
761	0.329183
762	0.329334
763	0.329368
764	0.329418
765	0.329468
766	0.329586
767	0.329653
768	0.329736
769	0.329803
770	0.329837
771	0.329870
773	0.329971
774	0.330072
775	0.330172
777	0.330239
778	0.330340
779	0.330423
780	0.330490
781	0.330574
782	0.330608
783	0.330725
784	0.330876
785	0.330926
786	0.330993
787	0.331043
788	0.331060
789	0.331110
790	0.331261
791	0.331311
792	0.331378
793	0.331479
794	0.331663
795	0.331781
796	0.331831
797	0.331915
798	0.332032
799	0.332065
800	0.332183
801	0.332267
802	0.332317
803	0.332384
804	0.332468
805	0.332568
806	0.332652
807	0.332736
808	0.332786
809	0.332920
811	0.332987
812	0.333054
813	0.333088
814	0.333205
815	0.333238
816	0.333322
817	0.333406
818	0.333490
819	0.333573
820	0.333657
821	0.333708
822	0.333808
823	0.333842
824	0.333942
825	0.334043
826	0.334126
827	0.334227
828	0.334344
829	0.334411
830	0.334478
831	0.334579
832	0.334713
833	0.334730
834	0.334797
835	0.334880
836	0.334964
837	0.335065
838	0.335249
839	0.335299
840	0.335450
841	0.335534
842	0.335618
843	0.335701
844	0.335752
845	0.335836
846	0.335869
847	0.335919
848	0.335936
849	0.336037
850	0.336070
851	0.336154
852	0.336221
853	0.336271
854	0.336372
855	0.336422
856	0.336455
857	0.336573
858	0.336590
859	0.336690
860	0.336724
861	0.336858
862	0.336874
863	0.337025
864	0.337075
865	0.337226
866	0.337310
867	0.337478
868	0.337612
869	0.337662
871	0.337729
872	0.337796
873	0.337846
874	0.337930
875	0.337997
876	0.338081
877	0.338198
879	0.338215
880	0.338265
881	0.338332
882	0.338449
883	0.338550
884	0.338583
885	0.338684
886	0.338701
887	0.338734
888	0.338768
889	0.338835
890	0.338919
891	0.338969
892	0.339103
893	0.339187
894	0.339270
895	0.339337
896	0.339438
897	0.339488
898	0.339589
899	0.339689
900	0.339807
901	0.339890
902	0.339907
903	0.339941
904	0.340058
905	0.340175
906	0.340192
907	0.340259
908	0.340276
909	0.340376
910	0.340477
911	0.340577
912	0.340611
913	0.340678
914	0.340745
915	0.340795
916	0.340845
918	0.340896
919	0.340980
920	0.341013
921	0.341130
922	0.341231
923	0.341365
924	0.341449
925	0.341633
926	0.341683
927	0.341750
928	0.341784
929	0.341868
930	0.341918
931	0.341935
933	0.341985
934	0.342002
935	0.342069
936	0.342119
937	0.342236
938	0.342354
939	0.342387
940	0.342454
941	0.342521
942	0.342588
943	0.342655
944	0.342705
945	0.342772
946	0.342823
947	0.342906
948	0.342923
949	0.342957
950	0.342990
951	0.343091
952	0.343175
953	0.343275
954	0.343342
955	0.343493
956	0.343577
957	0.343711
958	0.343795
959	0.343845
960	0.343912
961	0.343996
962	0.344130
963	0.344180
964	0.344280
965	0.344364
966	0.344431
967	0.344498
968	0.344599
969	0.344750
970	0.344884
971	0.344917
972	0.344967
973	0.344984
974	0.345085
975	0.345118
976	0.345168
977	0.345303
978	0.345370
979	0.345420
980	0.345453
981	0.345537
982	0.345671
983	0.345721
984	0.345788
985	0.345822
986	0.345906
987	0.345973
988	0.346057
989	0.346140
990	0.346241
991	0.346274
992	0.346308
993	0.346425
994	0.346509
995	0.346576
996	0.346609
997	0.346676
999	0.346744
1000	0.346878
1001	0.346894
1002	0.347012
1003	0.347062
1004	0.347129
1005	0.347162
1006	0.347280
1007	0.347347
1008	0.347431
1009	0.347464
1010	0.347514
1011	0.347548
1012	0.347615
1014	0.347665
1015	0.347782
1016	0.347849
1017	0.348000
1018	0.348117
1019	0.348235
1020	0.348302
1021	0.348369
1022	0.348419
1023	0.348436
1026	0.348486
1027	0.348587
1028	0.348603
1029	0.348654
1030	0.348771
1031	0.348821
1032	0.348872
1033	0.348955
1034	0.348989
1036	0.349039
1037	0.349106
1038	0.349156
1039	0.349240
1040	0.349307
1041	0.349357
1042	0.349391
1043	0.349408
1044	0.349458
1045	0.349508
1046	0.349575
1047	0.349659
1048	0.349793
1049	0.349877
1050	0.349927
1051	0.350028
1052	0.350095
1053	0.350145
1054	0.350245
1055	0.350346
1056	0.350380
1057	0.350430
1058	0.350530
1059	0.350597
1060	0.350648
1061	0.350731
1062	0.350782
1063	0.350798
1064	0.350865
1065	0.350949
1066	0.351016
1067	0.351067
1068	0.351100
1069	0.351251
1070	0.351301
1071	0.351318
1072	0.351402
1073	0.351502
1074	0.351586
1075	0.351703
1076	0.351737
1077	0.351837
1078	0.351921
1079	0.351938
1080	0.351955
1081	0.352022
1082	0.352055
1083	0.352105
1084	0.352206
1085	0.352223
1086	0.352273
1087	0.352323
1088	0.352373
1089	0.352407
1090	0.352457
1091	0.352507
1092	0.352625
1094	0.352709
1095	0.352809
1096	0.352893
1097	0.352910
1098	0.352960
1099	0.353027
1100	0.353127
1101	0.353228
1102	0.353295
1103	0.353345
1104	0.353396
1105	0.353463
1106	0.353597
1107	0.353664
1108	0.353697
1109	0.353781
1110	0.353831
1111	0.353948
1112	0.354083
1113	0.354150
1114	0.354183
1115	0.354250
1116	0.354334
1117	0.354418
1118	0.354518
1120	0.354602
1121	0.354686
1122	0.354753
1123	0.354803
1124	0.354887
1125	0.354987
1126	0.355021
1127	0.355071
1128	0.355239
1129	0.355255
1130	0.355306
1131	0.355356
1132	0.355406
1133	0.355423
1134	0.355507
1135	0.355624
1136	0.355741
1137	0.355792
1138	0.355842
1139	0.355926
1140	0.355959
1141	0.356026
1142	0.356093
1143	0.356127
1144	0.356177
1145	0.356211
1146	0.356261
1147	0.356412
1148	0.356479
1149	0.356562
1151	0.356646
1152	0.356713
1153	0.356747
1154	0.356814
1155	0.356847
1156	0.356914
1157	0.356965
1158	0.357065
1159	0.357132
1160	0.357182
1161	0.357216
1162	0.357283
1164	0.357316
1165	0.357350
1166	0.357383
1167	0.357434
1168	0.357484
1169	0.357534
1170	0.357584
1171	0.357635
1172	0.357702
1173	0.357752
1174	0.357802
1175	0.357836
1176	0.357853
1177	0.357953
1178	0.358003
1179	0.358037
1180	0.358087
1181	0.358171
1182	0.358221
1183	0.358322
1185	0.358338
1186	0.358439
1187	0.358489
1188	0.358506
1189	0.358540
1190	0.358607
1191	0.358690
1192	0.358757
1193	0.358808
1194	0.358858
1195	0.358958
1196	0.359009
1197	0.359059
1198	0.359076
1199	0.359093
1201	0.359126
1202	0.359193
1203	0.359210
1204	0.359243
1205	0.359277
1206	0.359310
1207	0.359361
1208	0.359377
1209	0.359444
1210	0.359545
1211	0.359595
1212	0.359645
1213	0.359696
1214	0.359779
1215	0.359847
1216	0.359880
1217	0.359947
1218	0.359964
1219	0.359997
1220	0.360014
1221	0.360098
1222	0.360198
1223	0.360232
1224	0.360316
1225	0.360349
1226	0.360416
1227	0.360450
1228	0.360517
1229	0.360584
1231	0.360617
1232	0.360651
1233	0.360668
1234	0.360718
1236	0.360768
1237	0.360785
1238	0.360818
1239	0.360919
1240	0.360986
1241	0.361103
1242	0.361170
1243	0.361220
1244	0.361321
1245	0.361371
1246	0.361438
1247	0.361539
1248	0.361589
1249	0.361606
1250	0.361639
1251	0.361723
1252	0.361757
1253	0.361807
1254	0.361857
1255	0.361924
1256	0.361958
1257	0.362008
1258	0.362042
1259	0.362109
1260	0.362159
1261	0.362209
1262	0.362276
1263	0.362326
1264	0.362410
1265	0.362460
1266	0.362527
1267	0.362578
1268	0.362661
1269	0.362745
1270	0.362829
1271	0.362896
1272	0.362980
1273	0.363131
1274	0.363181
1275	0.363214
1276	0.363248
1277	0.363315
1278	0.363332
1279	0.363399
1280	0.363449
1281	0.363499
1282	0.363533
1283	0.363566
1284	0.363583
1286	0.363633
1288	0.363650
1289	0.363700
1290	0.363767
1292	0.363784
1293	0.363834
1294	0.363901
1295	0.363968
1296	0.364052
1297	0.364086
1298	0.364136
1299	0.364220
1300	0.364253
1301	0.364354
1302	0.364404
1303	0.364454
1304	0.364471
1306	0.364505
1307	0.364622
1308	0.364672
1309	0.364722
1310	0.364773
1311	0.364806
1312	0.364890
1313	0.364957
1314	0.364991
1315	0.365024
1316	0.365058
1317	0.365125
1318	0.365141
1319	0.365175
1320	0.365192
1321	0.365225
1322	0.365326
1323	0.365409
1324	0.365426
1325	0.365493
1326	0.365577
1327	0.365610
1328	0.365694
1329	0.365711
1330	0.365745
1331	0.365778
1332	0.365862
1333	0.365912
1334	0.365996
1335	0.366029
1336	0.366046
1337	0.366080
1338	0.366113
1339	0.366180
1340	0.366281
1341	0.366381
1342	0.366465
1343	0.366566
1344	0.366633
1346	0.366700
1347	0.366783
1348	0.366817
1349	0.366850
1350	0.366884
1352	0.366984
1353	0.367085
1354	0.367186
1355	0.367236
1356	0.367303
1358	0.367353
1359	0.367420
1360	0.367504
1361	0.367588
1362	0.367655
1363	0.367705
1364	0.367772
1365	0.367805
1366	0.367822
1368	0.367923
1369	0.367990
1370	0.368023
1372	0.368040
1373	0.368090
1374	0.368107
1375	0.368174
1376	0.368191
1377	0.368275
1378	0.368325
1380	0.368342
1381	0.368392
1382	0.368459
1383	0.368526
1384	0.368560
1386	0.368627
1388	0.368643
1389	0.368727
1390	0.368761
1391	0.368861
1392	0.368911
1393	0.368962
1394	0.369045
1395	0.369062
1396	0.369096
1397	0.369129
1398	0.369163
1401	0.369179
1402	0.369263
1403	0.369330
1404	0.369381
1405	0.369448
1406	0.369498
1407	0.369531
1408	0.369548
1409	0.369615
1410	0.369665
1411	0.369716
1413	0.369749
1414	0.369816
1415	0.369866
1416	0.369917
1417	0.369967
1418	0.370051
1419	0.370084
1420	0.370135
1421	0.370235
1422	0.370319
1423	0.370403
1424	0.370453
1425	0.370486
1426	0.370537
1427	0.370587
1428	0.370637
1429	0.370687
1430	0.370755
1431	0.370788
1432	0.370805
1433	0.370889
1434	0.370922
1435	0.370939
1436	0.370972
1437	0.371039
1438	0.371157
1439	0.371207
1440	0.371240
1441	0.371274
1442	0.371324
1443	0.371358
1444	0.371441
1445	0.371492
1446	0.371525
1447	0.371609
1448	0.371643
1449	0.371710
1450	0.371743
1451	0.371777
1452	0.371810
1453	0.371860
1454	0.371894
1455	0.371911
1456	0.371978
1457	0.372011
1458	0.372045
1459	0.372061
1460	0.372112
1461	0.372179
1462	0.372246
1464	0.372296
1465	0.372330
1466	0.372363
1467	0.372397
1468	0.372447
1469	0.372480
1470	0.372531
1471	0.372547
1472	0.372631
1473	0.372681
1474	0.372765
1475	0.372799
1476	0.372849
1477	0.372866
1478	0.372933
1479	0.372966
1480	0.373033
1481	0.373050
1482	0.373100
1483	0.373151
1484	0.373218
1485	0.373285
1486	0.373318
1487	0.373419
1488	0.373435
1489	0.373519
1490	0.373586
1491	0.373603
1492	0.373637
1493	0.373754
1494	0.373771
1495	0.373821
1497	0.373838
1498	0.373854
1499	0.373888
1500	0.373938
1501	0.373972
1502	0.374022
1503	0.374072
1504	0.374156
1505	0.374173
1506	0.374240
1507	0.374290
1508	0.374340
1509	0.374374
1510	0.374424
1511	0.374541
1512	0.374558
1513	0.374659
1514	0.374709
1515	0.374759
1516	0.374793
1518	0.374843
1520	0.374977
1521	0.375010
1522	0.375061
1523	0.375094
1524	0.375128
1525	0.375161
1526	0.375195
1527	0.375228
1528	0.375262
1529	0.375362
1531	0.375429
1532	0.375496
1533	0.375547
1535	0.375597
1536	0.375664
1537	0.375697
1538	0.375714
1539	0.375815
1540	0.375882
1541	0.375932
1542	0.375966
1543	0.376049
1544	0.376116
1545	0.376150
1546	0.376167
1548	0.376267
