key	frequency
0	0.000600
1	0.001067
2	0.001383
3	0.001633
4	0.001783
5	0.001983
6	0.002117
7	0.002250
8	0.002383
9	0.002467
10	0.002600
11	0.002667
12	0.002767
13	0.002850
14	0.002950
15	0.003050
16	0.003167
17	0.003217
18	0.003333
19	0.003367
20	0.003400
21	0.003433
22	0.003483
23	0.003567
24	0.003650
25	0.003700
26	0.003767
27	0.003800
28	0.003850
29	0.003883
30	0.003950
31	0.003967
32	0.003983
33	0.004050
34	0.004117
35	0.004133
37	0.004183
39	0.004233
40	0.004283
41	0.004317
42	0.004400
43	0.004450
44	0.004483
45	0.004517
46	0.004617
47	0.004650
48	0.004700
49	0.004733
50	0.004750
51	0.004783
52	0.004817
53	0.004850
54	0.004867
57	0.004883
58	0.004900
59	0.004917
60	0.004950
61	0.005017
63	0.005033
64	0.005067
66	0.005133
68	0.005150
69	0.005183
70	0.005233
71	0.005250
72	0.005267
74	0.005317
75	0.005333
76	0.005383
77	0.005450
78	0.005500
79	0.005533
80	0.005567
81	0.005600
82	0.005650
84	0.005667
85	0.005733
86	0.005783
88	0.005800
89	0.005867
91	0.005900
92	0.005933
93	0.005950
94	0.005983
95	0.006000
96	0.006050
97	0.006067
98	0.006117
99	0.006133
100	0.006167
101	0.006183
102	0.006233
104	0.006283
107	0.006300
112	0.006333
113	0.006383
116	0.006400
117	0.006433
119	0.006450
120	0.006467
121	0.006500
122	0.006533
123	0.006550
124	0.006583
125	0.006600
126	0.006617
128	0.006683
129	0.006717
131	0.006750
133	0.006817
134	0.006833
135	0.006867
136	0.006883
137	0.006933
138	0.006967
139	0.007000
140	0.007017
142	0.007050
143	0.007067
144	0.007117
147	0.007150
148	0.007217
149	0.007233
150	0.007267
151	0.007283
152	0.007300
153	0.007367
154	0.007383
155	0.007433
156	0.007450
157	0.007483
158	0.007517
159	0.007533
160	0.007567
162	0.007617
166	0.007633
169	0.007650
170	0.007667
171	0.007700
172	0.007733
174	0.007750
175	0.007767
177	0.007783
178	0.007800
179	0.007817
180	0.007850
182	0.007883
186	0.007933
187	0.007950
190	0.008000
191	0.008017
192	0.008033
193	0.008067
196	0.008083
198	0.008100
199	0.008117
200	0.008133
202	0.008150
205	0.008167
210	0.008217
211	0.008233
214	0.008250
217	0.008283
219	0.008300
222	0.008333
226	0.008367
227	0.008383
228	0.008400
229	0.008417
230	0.008433
232	0.008450
238	0.008483
239	0.008500
240	0.008517
242	0.008550
243	0.008567
244	0.008583
245	0.008600
249	0.008633
254	0.008650
259	0.008667
261	0.008683
266	0.008700
267	0.008717
268	0.008783
269	0.008800
270	0.008817
271	0.008833
272	0.008867
274	0.008883
275	0.008900
276	0.008950
282	0.008967
283	0.008983
284	0.009017
287	0.009033
289	0.009100
291	0.009133
296	0.009150
301	0.009167
303	0.009183
304	0.009200
306	0.009217
308	0.009233
311	0.009267
317	0.009283
318	0.009300
319	0.009317
321	0.009333
324	0.009350
326	0.009367
327	0.009417
328	0.009433
330	0.009450
332	0.009467
333	0.009500
334	0.009517
336	0.009533
339	0.009550
341	0.009583
342	0.009600
344	0.009650
345	0.009683
351	0.009700
352	0.009717
353	0.009733
359	0.009750
360	0.009767
362	0.009783
367	0.009800
369	0.009833
371	0.009850
378	0.009867
379	0.009883
381	0.009900
383	0.009933
387	0.009950
389	0.009967
393	0.009983
395	0.010000
396	0.010034
399	0.010050
400	0.010067
405	0.010084
406	0.010117
409	0.010150
412	0.010167
413	0.010250
415	0.010267
418	0.010284
420	0.010300
421	0.010317
424	0.010334
438	0.010350
439	0.010367
441	0.010400
447	0.010417
448	0.010434
450	0.010467
451	0.010500
454	0.010534
460	0.010567
462	0.010584
464	0.010600
465	0.010634
466	0.010667
468	0.010684
469	0.010700
472	0.010717
473	0.010750
477	0.010784
478	0.010800
481	0.010817
489	0.010834
490	0.010850
494	0.010867
495	0.010884
499	0.010900
502	0.010934
503	0.010950
505	0.010967
506	0.010984
507	0.011000
514	0.011017
515	0.011034
520	0.011084
522	0.011100
526	0.011117
531	0.011134
532	0.011150
536	0.011167
538	0.011184
540	0.011217
544	0.011234
547	0.011250
549	0.011267
551	0.011300
554	0.011317
556	0.011334
557	0.011350
559	0.011367
563	0.011384
566	0.011400
571	0.011417
573	0.011434
575	0.011467
576	0.011500
579	0.011517
585	0.011534
587	0.011550
591	0.011567
595	0.011584
598	0.011600
604	0.011617
605	0.011634
606	0.011650
607	0.011667
608	0.011684
615	0.011734
617	0.011750
619	0.011767
627	0.011784
634	0.011817
635	0.011834
637	0.011850
642	0.011884
643	0.011917
644	0.011934
645	0.011950
648	0.011967
651	0.011984
653	0.012000
654	0.012050
655	0.012067
656	0.012084
661	0.012100
662	0.012117
663	0.012134
665	0.012150
673	0.012184
682	0.012200
683	0.012217
691	0.012234
692	0.012250
693	0.012267
699	0.012300
702	0.012317
714	0.012350
715	0.012367
721	0.012400
724	0.012434
730	0.012450
732	0.012484
747	0.012500
761	0.012517
762	0.012550
766	0.012567
780	0.012617
785	0.012650
787	0.012667
789	0.012684
797	0.012700
804	0.012734
812	0.012750
813	0.012767
818	0.012784
819	0.012834
823	0.012850
824	0.012867
826	0.012884
841	0.012917
844	0.012934
851	0.012967
853	0.012984
855	0.013000
858	0.013017
859	0.013034
864	0.013050
869	0.013067
870	0.013084
871	0.013100
874	0.013117
877	0.013134
879	0.013150
881	0.013167
882	0.013184
890	0.013200
895	0.013217
899	0.013234
903	0.013250
911	0.013267
917	0.013300
919	0.013317
921	0.013334
928	0.013350
929	0.013367
934	0.013384
937	0.013400
938	0.013434
945	0.013450
950	0.013467
957	0.013484
959	0.013500
962	0.013534
963	0.013550
965	0.013567
967	0.013584
970	0.013600
971	0.013617
976	0.013634
977	0.013650
979	0.013667
990	0.013700
994	0.013717
1005	0.013734
1008	0.013750
1015	0.013767
1020	0.013784
1021	0.013800
1022	0.013817
1038	0.013834
1040	0.013850
1063	0.013867
1066	0.013884
1069	0.013900
1074	0.013917
1078	0.013950
1080	0.013967
1081	0.013984
1083	0.014000
1085	0.014017
1086	0.014034
1088	0.014050
1090	0.014067
1097	0.014084
1099	0.014100
1100	0.014117
1109	0.014134
1113	0.014167
1115	0.014184
1128	0.014200
1134	0.014234
1136	0.014250
1139	0.014267
1155	0.014284
1158	0.014300
1163	0.014317
1165	0.014334
1166	0.014350
1175	0.014367
1184	0.014384
1204	0.014400
1205	0.014417
1209	0.014450
1214	0.014467
1217	0.014484
1218	0.014500
1243	0.014517
1248	0.014534
1257	0.014550
1267	0.014567
1272	0.014584
1288	0.014600
1290	0.014634
1293	0.014650
1294	0.014667
1296	0.014684
1308	0.014700
1310	0.014717
1311	0.014734
1324	0.014750
1328	0.014767
1331	0.014784
1332	0.014800
1341	0.014817
1345	0.014834
1346	0.014850
1350	0.014867
1357	0.014884
1369	0.014900
1371	0.014917
1374	0.014934
1395	0.014950
1396	0.014967
1402	0.014984
1410	0.015000
1426	0.015017
1428	0.015034
1434	0.015050
1436	0.015067
1439	0.015084
1440	0.015100
1441	0.015117
1443	0.015134
1455	0.015150
1456	0.015167
1459	0.015184
1462	0.015200
1465	0.015217
1474	0.015234
1481	0.015250
1501	0.015267
1506	0.015284
1514	0.015300
1518	0.015317
1540	0.015350
1545	0.015367
1557	0.015384
1562	0.015400
1569	0.015434
1570	0.015450
1574	0.015467
1577	0.015484
1581	0.015500
1598	0.015517
1602	0.015534
1604	0.015550
1614	0.015567
1616	0.015584
1617	0.015600
1629	0.015617
1630	0.015650
1636	0.015667
1637	0.015684
1638	0.015700
1642	0.015717
1643	0.015734
1656	0.015750
1659	0.015784
1660	0.015800
1666	0.015817
1677	0.015834
1680	0.015850
1703	0.015867
1716	0.015884
1720	0.015900
1723	0.015917
1731	0.015934
1734	0.015950
1742	0.015967
1745	0.015984
1751	0.016000
1752	0.016017
1756	0.016034
1767	0.016050
1781	0.016067
1794	0.016084
1795	0.016100
1802	0.016117
1805	0.016134
1812	0.016150
1830	0.016167
1837	0.016184
1854	0.016200
1860	0.016217
1876	0.016234
1878	0.016267
1884	0.016284
1886	0.016300
1891	0.016317
1897	0.016334
1911	0.016350
1916	0.016367
1919	0.016384
1923	0.016400
1928	0.016417
1940	0.016434
1944	0.016450
1949	0.016467
1950	0.016484
1958	0.016500
1963	0.016517
1972	0.016534
1973	0.016550
1974	0.016567
1980	0.016584
1983	0.016600
1995	0.016617
1999	0.016634
2006	0.016650
2007	0.016667
2009	0.016684
2012	0.016700
2016	0.016717
2026	0.016734
2033	0.016750
2035	0.016767
2038	0.016784
2050	0.016800
2051	0.016817
2055	0.016834
2057	0.016850
2078	0.016867
2080	0.016900
2112	0.016917
2119	0.016934
2129	0.016950
2133	0.016967
2138	0.016984
2139	0.017000
2144	0.017017
2147	0.017034
2150	0.017050
2152	0.017067
2157	0.017084
2162	0.017100
2172	0.017117
2193	0.017134
2223	0.017150
2228	0.017167
2233	0.017184
2235	0.017200
2250	0.017217
2261	0.017234
2275	0.017267
2281	0.017284
2285	0.017300
2288	0.017317
2295	0.017350
2299	0.017367
2304	0.017384
2309	0.017400
2312	0.017417
2320	0.017434
2326	0.017450
2330	0.017467
2343	0.017484
2344	0.017517
2354	0.017550
2357	0.017567
2360	0.017584
2361	0.017600
2365	0.017617
2368	0.017634
2369	0.017650
2375	0.017667
2380	0.017684
2381	0.017700
2382	0.017717
2384	0.017734
2400	0.017750
2405	0.017767
2411	0.017784
2412	0.017800
2417	0.017817
2418	0.017834
2425	0.017850
2430	0.017867
2438	0.017900
2446	0.017917
2453	0.017934
2467	0.017950
2470	0.017967
2475	0.017984
2483	0.018000
2486	0.018017
2489	0.018034
2508	0.018050
2514	0.018067
2518	0.018084
2520	0.018100
2537	0.018134
2553	0.018150
2557	0.018167
2563	0.018184
2564	0.018200
2570	0.018217
2577	0.018234
2584	0.018267
2588	0.018284
2622	0.018300
2631	0.018317
2644	0.018334
2655	0.018350
2656	0.018367
2666	0.018384
2670	0.018400
2697	0.018417
2701	0.018434
2704	0.018467
2706	0.018484
2711	0.018500
2738	0.018517
2739	0.018534
2783	0.018550
2791	0.018567
2801	0.018584
2803	0.018600
2806	0.018617
2814	0.018634
2816	0.018650
2820	0.018667
2825	0.018684
2846	0.018700
2859	0.018717
2889	0.018734
2897	0.018750
2910	0.018784
2911	0.018800
2912	0.018817
2916	0.018834
2919	0.018850
2924	0.018884
2925	0.018900
2927	0.018917
2930	0.018934
2931	0.018967
2937	0.018984
2943	0.019000
2952	0.019017
2955	0.019034
2963	0.019050
2966	0.019084
3008	0.019100
3011	0.019134
3019	0.019167
3028	0.019184
3033	0.019200
3035	0.019217
3036	0.019234
3037	0.019250
3068	0.019267
3078	0.019284
3107	0.019300
3113	0.019317
3116	0.019334
3119	0.019350
3120	0.019367
3126	0.019384
3131	0.019400
3139	0.019417
3147	0.019434
3148	0.019450
3150	0.019467
3154	0.019484
3158	0.019500
3176	0.019517
3192	0.019534
3194	0.019550
3198	0.019567
3199	0.019600
3200	0.019617
3209	0.019634
3220	0.019650
3237	0.019667
3244	0.019684
3250	0.019700
3259	0.019717
3262	0.019734
3263	0.019750
3284	0.019767
3290	0.019784
3294	0.019800
3298	0.019817
3306	0.019834
3330	0.019850
3344	0.019867
3349	0.019884
3352	0.019917
3354	0.019934
3357	0.019950
3359	0.019967
3366	0.019984
3367	0.020000
3378	0.020017
3381	0.020034
3382	0.020050
3392	0.020067
3395	0.020084
3398	0.020100
3399	0.020117
3400	0.020134
3405	0.020150
3410	0.020167
3414	0.020184
3421	0.020200
3431	0.020217
3440	0.020234
3451	0.020250
3467	0.020267
3476	0.020284
3478	0.020300
3480	0.020317
3481	0.020334
3500	0.020350
3510	0.020367
3516	0.020384
3530	0.020400
3553	0.020417
3563	0.020434
3576	0.020450
3601	0.020467
3607	0.020484
3612	0.020500
3613	0.020517
3620	0.020534
3634	0.020550
3638	0.020567
3648	0.020584
3655	0.020600
3670	0.020617
3677	0.020634
3698	0.020650
3722	0.020684
3727	0.020700
3730	0.020717
3737	0.020734
3745	0.020750
3756	0.020767
3770	0.020784
3772	0.020800
3775	0.020817
3794	0.020834
3803	0.020850
3805	0.020867
3816	0.020884
3833	0.020900
3838	0.020917
3843	0.020934
3846	0.020950
3851	0.020967
3867	0.020984
3869	0.021000
3879	0.021017
3883	0.021034
3889	0.021050
3892	0.021067
3895	0.021084
3901	0.021100
3917	0.021117
3930	0.021134
3932	0.021167
3939	0.021184
3940	0.021200
3946	0.021217
3950	0.021234
3951	0.021250
3977	0.021267
3982	0.021284
3993	0.021300
4000	0.021317
4007	0.021334
4014	0.021350
4036	0.021367
4044	0.021384
4047	0.021400
4048	0.021417
4052	0.021434
4068	0.021450
4069	0.021467
4080	0.021484
4122	0.021500
4125	0.021517
4135	0.021534
4152	0.021550
4155	0.021567
4156	0.021584
4170	0.021600
4174	0.021617
4183	0.021634
4186	0.021650
4192	0.021667
4200	0.021684
4227	0.021700
4240	0.021717
4253	0.021734
4266	0.021750
4274	0.021767
4282	0.021784
4297	0.021800
4310	0.021817
4338	0.021834
4341	0.021850
4366	0.021867
4374	0.021884
4376	0.021900
4377	0.021917
4379	0.021934
4388	0.021950
4400	0.021967
4412	0.021984
4425	0.022000
4443	0.022017
4451	0.022034
4454	0.022050
4455	0.022067
4459	0.022084
4472	0.022117
4487	0.022134
4495	0.022150
4504	0.022167
4528	0.022184
4530	0.022200
4565	0.022217
4574	0.022234
4581	0.022250
4587	0.022267
4628	0.022284
4630	0.022300
4632	0.022317
4660	0.022334
4672	0.022350
4673	0.022367
4676	0.022384
4678	0.022400
4682	0.022417
4700	0.022434
4705	0.022450
4709	0.022467
4716	0.022484
4727	0.022500
4745	0.022534
4754	0.022567
4760	0.022584
4820	0.022600
4823	0.022617
4828	0.022634
4849	0.022650
4863	0.022667
4882	0.022700
4890	0.022717
4895	0.022734
4896	0.022767
4912	0.022784
4927	0.022800
4935	0.022817
4956	0.022834
4980	0.022850
4988	0.022867
4992	0.022884
4994	0.022900
5001	0.022917
5005	0.022934
5007	0.022950
5008	0.022967
5012	0.022984
5028	0.023017
5054	0.023034
5062	0.023050
5065	0.023067
5079	0.023100
5085	0.023117
5092	0.023134
5093	0.023150
5114	0.023167
5125	0.023184
5132	0.023217
5139	0.023234
5140	0.023250
5147	0.023267
5166	0.023284
5169	0.023300
5181	0.023317
5183	0.023334
5204	0.023350
5256	0.023367
5262	0.023384
5273	0.023400
5298	0.023417
5306	0.023434
5324	0.023450
5331	0.023467
5338	0.023484
5342	0.023500
5380	0.023517
5394	0.023534
5399	0.023550
5426	0.023567
5429	0.023584
5430	0.023600
5451	0.023617
5468	0.023634
5471	0.023650
5473	0.023700
5477	0.023717
5502	0.023734
5503	0.023750
5519	0.023767
5520	0.023784
5565	0.023800
5566	0.023817
5571	0.023834
5576	0.023850
5592	0.023867
5593	0.023884
5603	0.023900
5635	0.023917
5670	0.023934
5674	0.023950
5684	0.023967
5686	0.024000
5709	0.024017
5722	0.024034
5728	0.024050
5741	0.024067
5749	0.024084
5750	0.024100
5755	0.024117
5774	0.024134
5776	0.024150
5789	0.024167
5797	0.024184
5799	0.024200
5800	0.024217
5860	0.024234
5867	0.024250
5877	0.024267
5885	0.024284
5892	0.024300
5922	0.024317
5933	0.024334
5956	0.024350
5995	0.024367
6003	0.024384
6008	0.024400
6010	0.024417
6033	0.024434
6066	0.024450
6087	0.024467
6090	0.024484
6092	0.024517
6098	0.024534
6112	0.024550
6138	0.024567
6148	0.024584
6172	0.024600
6175	0.024617
6183	0.024634
6192	0.024650
6196	0.024667
6200	0.024700
6202	0.024717
6228	0.024734
6229	0.024750
6251	0.024784
6254	0.024800
6261	0.024817
6279	0.024850
6297	0.024867
6299	0.024884
6329	0.024900
6356	0.024917
6365	0.024950
6370	0.024967
6373	0.024984
6406	0.025000
6409	0.025017
6431	0.025034
6440	0.025050
6470	0.025067
6483	0.025084
6561	0.025100
6581	0.025117
6584	0.025134
6585	0.025150
6590	0.025167
6608	0.025184
6612	0.025200
6613	0.025217
6649	0.025234
6668	0.025250
6715	0.025267
6718	0.025284
6737	0.025300
6745	0.025317
6750	0.025334
6755	0.025350
6793	0.025367
6808	0.025384
6809	0.025400
6827	0.025417
6851	0.025434
6861	0.025450
6863	0.025467
6866	0.025484
6901	0.025500
6947	0.025517
6948	0.025534
6968	0.025550
6974	0.025567
7006	0.025600
7011	0.025617
7033	0.025634
7049	0.025650
7050	0.025667
7055	0.025684
7077	0.025700
7096	0.025717
7101	0.025734
7106	0.025750
7133	0.025784
7160	0.025800
7170	0.025817
7176	0.025834
7184	0.025850
7196	0.025867
7201	0.025884
7206	0.025900
7215	0.025917
7218	0.025934
7303	0.025950
7304	0.025967
7305	0.025984
7310	0.026017
7323	0.026034
7345	0.026050
7350	0.026067
7402	0.026084
7419	0.026100
7424	0.026117
7450	0.026134
7465	0.026150
7498	0.026167
7503	0.026184
7513	0.026200
7521	0.026217
7536	0.026234
7541	0.026250
7549	0.026267
7550	0.026284
7561	0.026300
7572	0.026317
7593	0.026334
7597	0.026350
7601	0.026367
7613	0.026384
7626	0.026400
7647	0.026417
7652	0.026434
7654	0.026450
7668	0.026467
7669	0.026484
7676	0.026500
7696	0.026517
7702	0.026534
7745	0.026567
7751	0.026584
7752	0.026600
7756	0.026617
7765	0.026634
7768	0.026650
7770	0.026667
7778	0.026684
7834	0.026700
7836	0.026717
7837	0.026734
7838	0.026750
7904	0.026767
7909	0.026784
7922	0.026800
7925	0.026817
7928	0.026834
7971	0.026850
7985	0.026867
8010	0.026884
8018	0.026900
8020	0.026917
8022	0.026934
8062	0.026950
8080	0.026967
8089	0.026984
8110	0.027000
8118	0.027034
8122	0.027050
8137	0.027067
8143	0.027084
8148	0.027100
8162	0.027117
8179	0.027134
8190	0.027150
8195	0.027167
8213	0.027184
8277	0.027200
8293	0.027217
8300	0.027234
8322	0.027250
8337	0.027267
8352	0.027284
8359	0.027300
8379	0.027317
8386	0.027334
8387	0.027350
8442	0.027367
8461	0.027384
8494	0.027400
8498	0.027417
8501	0.027434
8508	0.027450
8513	0.027467
8527	0.027484
8528	0.027500
8532	0.027517
8540	0.027534
8552	0.027550
8568	0.027567
8598	0.027584
8610	0.027600
8619	0.027617
8624	0.027634
8631	0.027650
8640	0.027667
8651	0.027684
8653	0.027700
8679	0.027717
8686	0.027734
8687	0.027767
8734	0.027784
8752	0.027800
8786	0.027817
8803	0.027834
8813	0.027850
8814	0.027867
8816	0.027884
8835	0.027900
8840	0.027917
8868	0.027934
8875	0.027950
8879	0.027967
8882	0.027984
8885	0.028000
8889	0.028017
8925	0.028034
8927	0.028050
8930	0.028067
8934	0.028084
8938	0.028100
8941	0.028117
8966	0.028134
8995	0.028150
9013	0.028167
9023	0.028184
9032	0.028200
9065	0.028217
9077	0.028234
9099	0.028250
9100	0.028267
9120	0.028300
9136	0.028317
9146	0.028334
9161	0.028350
9212	0.028367
9213	0.028384
9245	0.028400
9275	0.028417
9297	0.028434
9341	0.028450
9353	0.028467
9368	0.028484
9399	0.028500
9417	0.028517
9424	0.028534
9425	0.028550
9430	0.028567
9440	0.028584
9442	0.028600
9454	0.028617
9459	0.028634
9473	0.028650
9483	0.028667
9487	0.028684
9504	0.028700
9513	0.028717
9548	0.028734
9566	0.028750
9572	0.028767
9574	0.028784
9575	0.028800
9586	0.028817
9592	0.028834
9599	0.028850
9625	0.028867
9637	0.028900
9648	0.028917
9664	0.028934
9685	0.028950
9690	0.028967
9814	0.028984
9815	0.029000
9859	0.029017
9860	0.029034
9861	0.029050
9938	0.029084
9947	0.029100
9960	0.029117
9967	0.029134
9978	0.029150
10011	0.029167
10087	0.029184
10109	0.029200
10113	0.029217
10143	0.029234
10195	0.029250
10207	0.029267
10209	0.029284
10213	0.029300
10225	0.029317
10240	0.029334
10245	0.029350
10253	0.029367
10258	0.029384
10266	0.029400
10276	0.029417
10474	0.029434
10480	0.029450
10512	0.029467
10532	0.029484
10550	0.029500
10580	0.029517
10601	0.029534
10613	0.029550
10698	0.029567
10699	0.029584
10730	0.029600
10738	0.029617
10763	0.029634
10795	0.029650
10800	0.029667
10804	0.029684
10809	0.029700
10810	0.029717
10833	0.029734
10843	0.029750
10848	0.029767
10850	0.029784
10854	0.029800
10855	0.029817
10877	0.029834
10882	0.029850
10937	0.029867
10950	0.029884
11019	0.029900
11030	0.029917
11037	0.029934
11068	0.029950
11069	0.029967
11079	0.029984
11112	0.030001
11136	0.030017
11159	0.030034
11163	0.030051
11214	0.030067
11225	0.030101
11230	0.030117
11242	0.030134
11289	0.030151
11297	0.030167
11308	0.030184
11363	0.030201
11395	0.030217
11417	0.030234
11421	0.030251
11423	0.030267
11441	0.030284
11453	0.030301
11476	0.030317
11562	0.030334
11580	0.030351
11595	0.030367
11596	0.030384
11623	0.030401
11640	0.030417
11653	0.030434
11683	0.030451
11692	0.030467
11693	0.030484
11749	0.030501
11801	0.030517
11805	0.030534
11853	0.030551
11860	0.030567
11862	0.030584
11928	0.030601
11935	0.030617
11953	0.030634
11989	0.030651
11993	0.030667
12078	0.030684
12092	0.030701
12095	0.030717
12128	0.030734
12144	0.030751
12165	0.030767
12172	0.030784
12180	0.030801
12182	0.030817
12205	0.030851
12257	0.030867
12276	0.030884
12330	0.030901
12335	0.030917
12365	0.030934
12431	0.030951
12513	0.030967
12555	0.030984
12581	0.031001
12587	0.031017
12599	0.031034
12621	0.031051
12706	0.031067
12719	0.031084
12725	0.031101
12735	0.031117
12781	0.031134
12787	0.031151
12815	0.031167
12816	0.031184
12863	0.031201
12880	0.031217
12935	0.031234
12960	0.031251
13019	0.031267
13027	0.031284
13044	0.031301
13047	0.031317
13082	0.031334
13089	0.031351
13094	0.031367
13112	0.031384
13127	0.031401
13138	0.031417
13141	0.031434
13144	0.031451
13160	0.031467
13266	0.031484
13289	0.031501
13333	0.031517
13407	0.031534
13415	0.031551
13419	0.031567
13463	0.031584
13480	0.031601
13500	0.031617
13515	0.031634
13535	0.031651
13579	0.031667
13593	0.031684
13596	0.031701
13628	0.031717
13630	0.031734
13667	0.031751
13693	0.031767
13703	0.031784
13708	0.031801
13723	0.031817
13747	0.031834
13765	0.031851
13793	0.031867
13824	0.031884
13829	0.031901
13841	0.031917
13845	0.031934
13856	0.031951
