key	frequency
0	0.018600
1	0.029800
2	0.038400
3	0.043500
4	0.047700
5	0.051600
6	0.054800
7	0.057900
8	0.060700
9	0.063200
10	0.065400
11	0.066800
12	0.068800
13	0.070600
14	0.072400
15	0.074100
16	0.075600
17	0.076200
18	0.078100
19	0.079400
20	0.080700
21	0.082000
22	0.082800
23	0.083800
24	0.084200
25	0.085400
26	0.086700
27	0.087800
28	0.088600
29	0.089700
30	0.090700
31	0.091400
32	0.092800
33	0.093600
34	0.094300
35	0.094500
36	0.095400
37	0.096200
38	0.096800
39	0.097500
40	0.097800
41	0.098500
42	0.098900
43	0.099800
44	0.100400
45	0.101100
46	0.101300
47	0.102100
48	0.102900
49	0.103400
50	0.104000
51	0.104800
52	0.105200
53	0.105400
54	0.105700
55	0.106300
56	0.106800
57	0.107400
58	0.107900
59	0.108400
60	0.108900
61	0.109100
62	0.109300
63	0.109600
64	0.109900
65	0.110700
66	0.111200
67	0.111500
68	0.111800
69	0.112100
70	0.112700
71	0.113200
72	0.113400
73	0.113700
74	0.114000
75	0.114500
76	0.115100
77	0.115800
78	0.116100
79	0.116700
81	0.117100
83	0.117200
84	0.117700
85	0.118100
86	0.118300
87	0.118700
88	0.119100
89	0.119500
90	0.119800
92	0.120600
93	0.120800
94	0.120900
96	0.121300
97	0.121800
98	0.122100
99	0.122600
100	0.122800
102	0.123000
103	0.123100
104	0.123500
105	0.123800
106	0.124100
107	0.124200
108	0.124600
109	0.124700
110	0.124900
111	0.125000
112	0.125200
113	0.125500
114	0.125700
115	0.126200
116	0.126900
117	0.127300
118	0.127500
119	0.127600
120	0.128000
121	0.128200
122	0.128700
123	0.128800
124	0.129200
125	0.129400
126	0.129500
127	0.129900
129	0.130100
130	0.130300
131	0.130600
132	0.130900
133	0.131000
134	0.131100
135	0.131300
136	0.132000
137	0.132100
138	0.132300
139	0.132500
140	0.132800
142	0.133000
143	0.133200
144	0.133400
145	0.133500
146	0.133700
147	0.133800
148	0.134000
149	0.134100
150	0.134200
151	0.134300
153	0.134600
154	0.134800
155	0.135200
157	0.135600
158	0.135800
159	0.135900
160	0.136200
161	0.136400
162	0.136600
163	0.136900
165	0.137200
166	0.137300
167	0.137500
168	0.137800
169	0.138200
170	0.138600
171	0.138800
172	0.138900
173	0.139100
174	0.139200
175	0.139500
176	0.140000
179	0.140200
180	0.140300
181	0.140600
182	0.140900
183	0.141000
184	0.141300
185	0.141400
186	0.141600
188	0.141700
189	0.142000
190	0.142200
192	0.142400
193	0.142500
194	0.142600
196	0.143000
197	0.143100
198	0.143200
199	0.143300
200	0.143800
201	0.144000
202	0.144300
203	0.144600
204	0.144800
206	0.145100
207	0.145200
208	0.145300
209	0.145500
213	0.146000
214	0.146100
215	0.146300
216	0.146400
217	0.146500
218	0.146800
220	0.146900
221	0.147000
222	0.147100
223	0.147500
224	0.147800
225	0.147900
226	0.148000
227	0.148100
228	0.148300
229	0.148500
230	0.148600
232	0.149000
233	0.149100
234	0.149500
235	0.149700
236	0.149900
237	0.150000
239	0.150200
240	0.150400
243	0.150500
244	0.150800
245	0.151000
246	0.151100
247	0.151200
248	0.151600
249	0.151800
250	0.152100
251	0.152600
252	0.152900
253	0.153000
254	0.153100
255	0.153400
261	0.153600
262	0.153800
263	0.153900
265	0.154000
266	0.154100
267	0.154200
268	0.154300
269	0.154400
270	0.154600
272	0.154800
273	0.155000
276	0.155100
277	0.155300
278	0.155400
279	0.155500
280	0.155600
281	0.155700
283	0.155800
284	0.156000
285	0.156200
286	0.156300
289	0.156500
290	0.156600
291	0.156900
296	0.157100
297	0.157300
298	0.157500
299	0.157700
302	0.157900
303	0.158200
305	0.158400
306	0.158500
307	0.158700
309	0.158800
310	0.158900
311	0.159000
312	0.159200
317	0.159300
318	0.159400
319	0.159500
320	0.159600
321	0.159700
323	0.159800
324	0.159900
326	0.160000
327	0.160100
328	0.160500
329	0.160600
330	0.160800
332	0.160900
333	0.161000
335	0.161200
337	0.161300
339	0.161400
342	0.161600
343	0.161800
344	0.161900
345	0.162300
346	0.162400
349	0.162500
350	0.162700
354	0.162900
355	0.163000
357	0.163100
358	0.163500
360	0.163800
363	0.163900
365	0.164000
368	0.164300
369	0.164400
370	0.164500
371	0.164700
372	0.164800
373	0.165300
374	0.165700
375	0.165900
377	0.166000
379	0.166200
380	0.166300
381	0.166500
382	0.166700
383	0.166800
384	0.166900
385	0.167000
390	0.167100
391	0.167200
392	0.167400
393	0.167600
396	0.167700
398	0.167900
404	0.168000
406	0.168100
407	0.168200
409	0.168300
412	0.168400
413	0.168500
415	0.168600
416	0.168700
417	0.169100
419	0.169400
420	0.169500
423	0.169600
424	0.169700
425	0.169800
426	0.169900
428	0.170000
429	0.170100
434	0.170300
435	0.170400
437	0.170500
440	0.170600
441	0.170700
444	0.171000
445	0.171200
446	0.171300
450	0.171400
454	0.171500
455	0.171600
456	0.171700
459	0.171900
460	0.172100
465	0.172200
469	0.172300
470	0.172400
471	0.172600
473	0.172800
474	0.172900
475	0.173000
477	0.173100
484	0.173200
486	0.173300
489	0.173500
490	0.173600
491	0.173700
496	0.173900
498	0.174000
499	0.174100
500	0.174200
501	0.174300
502	0.174400
503	0.174500
504	0.174600
506	0.174800
507	0.175000
508	0.175200
510	0.175600
511	0.175700
512	0.175800
513	0.175900
514	0.176100
515	0.176200
518	0.176300
519	0.176400
520	0.176700
523	0.176800
526	0.176900
528	0.177000
530	0.177100
533	0.177200
537	0.177400
540	0.177500
541	0.177600
542	0.177800
544	0.177900
546	0.178000
548	0.178100
549	0.178200
550	0.178300
554	0.178500
555	0.178600
561	0.178800
562	0.179000
563	0.179200
564	0.179400
568	0.179500
570	0.179700
571	0.179800
573	0.180000
574	0.180100
575	0.180200
576	0.180300
578	0.180400
582	0.180500
583	0.180600
584	0.180800
586	0.180900
590	0.181100
591	0.181200
592	0.181300
596	0.181400
597	0.181500
599	0.181600
602	0.181700
603	0.181800
604	0.182000
608	0.182100
609	0.182200
610	0.182300
611	0.182500
620	0.182600
623	0.182800
624	0.183000
625	0.183200
626	0.183300
628	0.183500
631	0.183700
632	0.183800
634	0.183900
635	0.184100
636	0.184200
640	0.184300
641	0.184400
644	0.184500
646	0.184600
647	0.184800
649	0.184900
651	0.185000
654	0.185300
658	0.185400
664	0.185500
665	0.185700
667	0.185800
670	0.186000
671	0.186100
674	0.186200
675	0.186300
677	0.186400
678	0.186600
679	0.186700
681	0.186800
684	0.186900
687	0.187100
688	0.187200
691	0.187300
692	0.187400
697	0.187500
698	0.187800
699	0.187900
703	0.188000
705	0.188100
706	0.188200
714	0.188400
716	0.188500
718	0.188700
722	0.188900
723	0.189000
725	0.189100
730	0.189400
732	0.189500
734	0.189600
735	0.189700
742	0.189800
744	0.189900
749	0.190000
752	0.190100
755	0.190200
757	0.190400
759	0.190500
760	0.190600
761	0.190700
762	0.190800
766	0.191000
768	0.191100
770	0.191300
771	0.191400
773	0.191500
778	0.191600
780	0.191700
783	0.191800
792	0.191900
802	0.192000
803	0.192100
805	0.192200
810	0.192300
815	0.192400
818	0.192500
820	0.192600
822	0.192700
824	0.192800
825	0.193000
828	0.193200
829	0.193300
830	0.193500
834	0.193700
836	0.193800
838	0.193900
841	0.194100
845	0.194200
848	0.194400
849	0.194600
850	0.194700
853	0.194800
854	0.194900
856	0.195000
858	0.195100
859	0.195200
863	0.195300
864	0.195400
865	0.195500
866	0.195700
868	0.195800
869	0.196000
871	0.196200
872	0.196300
874	0.196400
876	0.196500
884	0.196600
886	0.196700
887	0.196800
889	0.196900
894	0.197100
897	0.197200
899	0.197300
902	0.197400
903	0.197500
909	0.197700
911	0.197800
913	0.198000
914	0.198100
922	0.198200
926	0.198300
927	0.198400
934	0.198600
937	0.198700
940	0.198800
942	0.198900
951	0.199000
953	0.199100
957	0.199200
958	0.199300
959	0.199400
961	0.199500
962	0.199600
963	0.199700
964	0.199800
966	0.199900
968	0.200000
971	0.200100
974	0.200300
976	0.200400
980	0.200600
982	0.200700
983	0.200800
986	0.201000
989	0.201100
1003	0.201200
1005	0.201300
1011	0.201400
1012	0.201600
1013	0.201800
1016	0.201900
1017	0.202000
1018	0.202100
1023	0.202200
1024	0.202300
1025	0.202400
1032	0.202500
1034	0.202600
1035	0.202700
1038	0.202800
1041	0.202900
1046	0.203000
1047	0.203100
1048	0.203200
1049	0.203300
1051	0.203400
1052	0.203500
1054	0.203600
1056	0.203700
1058	0.203800
1061	0.204000
1062	0.204100
1065	0.204200
1071	0.204300
1073	0.204400
1075	0.204500
1080	0.204600
1082	0.204700
1083	0.204800
1085	0.204900
1088	0.205000
1093	0.205100
1098	0.205200
1100	0.205300
1101	0.205400
1106	0.205500
1109	0.205600
1118	0.205800
1119	0.205900
1120	0.206000
1128	0.206100
1132	0.206200
1136	0.206300
1139	0.206400
1142	0.206500
1145	0.206600
1153	0.206700
1154	0.206800
1155	0.206900
1156	0.207000
1160	0.207100
1161	0.207200
1162	0.207400
1163	0.207500
1164	0.207700
1166	0.207800
1170	0.207900
1181	0.208000
1182	0.208100
1183	0.208300
1186	0.208400
1200	0.208500
1213	0.208600
1214	0.208700
1216	0.208800
1217	0.209000
1223	0.209100
1227	0.209200
1234	0.209300
1239	0.209400
1241	0.209500
1245	0.209600
1249	0.209700
1250	0.209800
1254	0.210000
1256	0.210200
1261	0.210300
1263	0.210400
1264	0.210500
1273	0.210600
1278	0.210700
1282	0.210800
1285	0.210900
1287	0.211000
1294	0.211100
1299	0.211200
1303	0.211300
1307	0.211400
1313	0.211600
1321	0.211700
1324	0.211800
1328	0.211900
1330	0.212000
1333	0.212100
1335	0.212200
1343	0.212300
1347	0.212400
1348	0.212500
1349	0.212600
1351	0.212700
1359	0.212900
1361	0.213000
1362	0.213200
1363	0.213300
1366	0.213400
1368	0.213500
1370	0.213600
1371	0.213700
1372	0.213800
1373	0.213900
1375	0.214000
1378	0.214100
1379	0.214200
1381	0.214400
1387	0.214500
1389	0.214600
1396	0.214700
1403	0.214800
1413	0.215000
1421	0.215100
1424	0.215200
1432	0.215300
1434	0.215600
1436	0.215700
1438	0.215800
1439	0.215900
1449	0.216000
1452	0.216100
1453	0.216200
1455	0.216300
1461	0.216400
1463	0.216500
1467	0.216600
1468	0.216700
1476	0.216800
1482	0.216900
1501	0.217000
1503	0.217100
1507	0.217200
1508	0.217300
1513	0.217400
1516	0.217600
1521	0.217700
1525	0.217800
1526	0.217900
1531	0.218000
1532	0.218100
1537	0.218200
1541	0.218300
1545	0.218500
1552	0.218600
1555	0.218700
1557	0.218800
1560	0.218900
1561	0.219000
1565	0.219200
1567	0.219300
1573	0.219400
1574	0.219500
1581	0.219600
1585	0.219700
1594	0.219800
1602	0.219900
1611	0.220000
1616	0.220100
1618	0.220200
1620	0.220400
1622	0.220500
1623	0.220600
1628	0.220700
1630	0.220800
1631	0.220900
1632	0.221000
1633	0.221100
1635	0.221200
1636	0.221400
1637	0.221500
1639	0.221600
1647	0.221700
1648	0.221800
1652	0.221900
1655	0.222000
1657	0.222100
1663	0.222200
1666	0.222300
1674	0.222400
1678	0.222500
1679	0.222600
1680	0.222700
1687	0.222900
1701	0.223000
1702	0.223200
1703	0.223300
1707	0.223500
1710	0.223600
1711	0.223700
1716	0.223800
1721	0.223900
1726	0.224000
1728	0.224100
1731	0.224300
1737	0.224400
1741	0.224500
1747	0.224700
1749	0.224800
1776	0.225000
1778	0.225100
1781	0.225200
1784	0.225300
1792	0.225400
1796	0.225600
1798	0.225700
1800	0.225800
1805	0.225900
1806	0.226000
1808	0.226100
1818	0.226200
1819	0.226300
1822	0.226400
1823	0.226500
1827	0.226600
1831	0.226700
1833	0.226800
1837	0.226900
1846	0.227000
1850	0.227100
1854	0.227200
1855	0.227300
1874	0.227400
1875	0.227500
1877	0.227600
1878	0.227700
1881	0.227800
1882	0.227900
1884	0.228000
1887	0.228100
1892	0.228200
1908	0.228300
1911	0.228400
1912	0.228500
1925	0.228700
1932	0.228800
1936	0.229000
1939	0.229100
1943	0.229200
1946	0.229300
1953	0.229400
1955	0.229500
1964	0.229600
1965	0.229700
1988	0.229800
1989	0.229900
1990	0.230000
1994	0.230300
1995	0.230400
2003	0.230500
2005	0.230600
2007	0.230700
2013	0.230900
2017	0.231100
2021	0.231200
2030	0.231300
2033	0.231400
2045	0.231500
2048	0.231600
2050	0.231700
2053	0.231800
2062	0.231900
2082	0.232000
2083	0.232100
2086	0.232200
2094	0.232300
2096	0.232400
2132	0.232500
2134	0.232600
2138	0.232800
2143	0.232900
2148	0.233000
2149	0.233100
2157	0.233200
2163	0.233300
2164	0.233400
2168	0.233500
2176	0.233600
2178	0.233700
2181	0.233800
2189	0.233900
2191	0.234000
2195	0.234100
2203	0.234200
2204	0.234300
2213	0.234500
2217	0.234600
2220	0.234700
2227	0.234800
2234	0.234900
2238	0.235000
2240	0.235100
2259	0.235200
2269	0.235300
2283	0.235400
2284	0.235500
2285	0.235600
2298	0.235700
2309	0.235800
2319	0.235900
2333	0.236000
2339	0.236100
2353	0.236200
2368	0.236300
2373	0.236400
2381	0.236500
2388	0.236600
2391	0.236700
2392	0.236800
2394	0.236900
2397	0.237100
2405	0.237200
2413	0.237300
2417	0.237400
2432	0.237500
2437	0.237600
2451	0.237700
2460	0.237800
2466	0.237900
2467	0.238000
2470	0.238100
2475	0.238200
2478	0.238300
2509	0.238400
2525	0.238500
2533	0.238600
2538	0.238700
2542	0.238800
2546	0.238900
2548	0.239000
2558	0.239100
2561	0.239200
2563	0.239300
2568	0.239400
2569	0.239500
2573	0.239600
2584	0.239700
2587	0.239800
2593	0.239900
2597	0.240000
2602	0.240100
2608	0.240200
2632	0.240300
2634	0.240400
2640	0.240500
2655	0.240600
2665	0.240800
2667	0.240900
2673	0.241000
2676	0.241100
2680	0.241200
2683	0.241300
2684	0.241400
2685	0.241500
2686	0.241600
2688	0.241800
2689	0.241900
2691	0.242000
2692	0.242100
2707	0.242200
2732	0.242400
2734	0.242500
2742	0.242600
2744	0.242700
2745	0.242800
2756	0.242900
2771	0.243000
2791	0.243100
2792	0.243200
2794	0.243300
2797	0.243400
2810	0.243600
2826	0.243700
2837	0.243800
2863	0.243900
2869	0.244000
2873	0.244100
2885	0.244200
2890	0.244300
2894	0.244400
2897	0.244500
2904	0.244700
2915	0.244800
2917	0.244900
2920	0.245000
2924	0.245100
2926	0.245200
2937	0.245400
2974	0.245600
2978	0.245700
3003	0.245800
3004	0.245900
3005	0.246000
3012	0.246100
3016	0.246200
3019	0.246300
3024	0.246500
3029	0.246600
3030	0.246700
3036	0.246800
3058	0.246900
3061	0.247000
3068	0.247100
3069	0.247200
3085	0.247300
3094	0.247400
3095	0.247500
3097	0.247600
3109	0.247700
3111	0.247800
3116	0.247900
3130	0.248000
3131	0.248100
3133	0.248200
3137	0.248300
3150	0.248400
3154	0.248500
3157	0.248600
3166	0.248700
3167	0.248800
3181	0.248900
3182	0.249000
3194	0.249100
3212	0.249200
3221	0.249300
3222	0.249400
3230	0.249500
3236	0.249600
3245	0.249700
3259	0.249800
3273	0.249900
3277	0.250000
3278	0.250100
3288	0.250200
3297	0.250300
3307	0.250400
3314	0.250600
3320	0.250700
3322	0.250800
3326	0.250900
3339	0.251000
3353	0.251100
3354	0.251300
3355	0.251400
3361	0.251600
3369	0.251700
3381	0.251800
3414	0.251900
3425	0.252000
3429	0.252200
3436	0.252300
3464	0.252400
3466	0.252500
3483	0.252600
3494	0.252700
3510	0.252900
3515	0.253000
3520	0.253100
3534	0.253200
3551	0.253300
3560	0.253400
3569	0.253600
3570	0.253700
3571	0.253800
3576	0.253900
3597	0.254000
3601	0.254100
3607	0.254200
3613	0.254300
3639	0.254400
3640	0.254500
3646	0.254600
3659	0.254700
3676	0.254800
3703	0.254900
3707	0.255000
3730	0.255100
3737	0.255200
3742	0.255300
3750	0.255400
3756	0.255600
3757	0.255700
3773	0.255800
3777	0.255900
3786	0.256000
3801	0.256100
3803	0.256200
3815	0.256300
3822	0.256400
3829	0.256500
3836	0.256600
3847	0.256700
3856	0.256800
3863	0.256900
3875	0.257000
3883	0.257200
3891	0.257300
3912	0.257400
3914	0.257500
3925	0.257600
3937	0.257700
3959	0.257800
3961	0.257900
3965	0.258000
3966	0.258100
3978	0.258200
3985	0.258300
3991	0.258400
4012	0.258500
4013	0.258600
4051	0.258700
4053	0.258800
4083	0.258900
4096	0.259000
4099	0.259100
4114	0.259200
4128	0.259300
4153	0.259400
4180	0.259500
4203	0.259600
4225	0.259700
4235	0.259800
4237	0.259900
4247	0.260000
4263	0.260100
4267	0.260200
4269	0.260300
4301	0.260400
4306	0.260500
4308	0.260600
4315	0.260700
4322	0.260800
4327	0.260900
4330	0.261000
4362	0.261100
4365	0.261200
4371	0.261300
4382	0.261400
4386	0.261500
4415	0.261700
4443	0.261800
4446	0.261900
4457	0.262000
4473	0.262100
4483	0.262200
4489	0.262300
4498	0.262400
4507	0.262500
4511	0.262600
4513	0.262700
4522	0.262800
4528	0.262900
4564	0.263000
4577	0.263100
4585	0.263200
4586	0.263300
4613	0.263400
4642	0.263500
4665	0.263600
4676	0.263700
4698	0.263800
4708	0.263900
4710	0.264000
4730	0.264100
4754	0.264200
4763	0.264300
4765	0.264400
4771	0.264600
4788	0.264700
4832	0.264800
4844	0.264900
4860	0.265000
4878	0.265100
4884	0.265200
4886	0.265300
4906	0.265400
4927	0.265500
4929	0.265600
4952	0.265700
4961	0.265800
4962	0.265900
4978	0.266000
5025	0.266100
5031	0.266200
5039	0.266300
5041	0.266400
5042	0.266500
5063	0.266600
5065	0.266700
5098	0.266800
5115	0.266900
5121	0.267000
5124	0.267100
5129	0.267200
5141	0.267300
5156	0.267400
5162	0.267500
5163	0.267700
5164	0.267800
5169	0.267900
5171	0.268000
5200	0.268100
5201	0.268200
5202	0.268300
5205	0.268400
5208	0.268500
5210	0.268600
5241	0.268700
5265	0.268800
5272	0.268900
5307	0.269000
5309	0.269100
5315	0.269200
5340	0.269300
5347	0.269400
5349	0.269500
5360	0.269600
5372	0.269700
5376	0.269800
5396	0.269900
5401	0.270000
5424	0.270100
5429	0.270200
5443	0.270300
5459	0.270400
5460	0.270500
5469	0.270600
5473	0.270700
5490	0.270800
5515	0.270900
5532	0.271000
5540	0.271100
5548	0.271200
5549	0.271300
5561	0.271400
5566	0.271500
5578	0.271600
5580	0.271700
5590	0.271800
5600	0.271900
5621	0.272000
5625	0.272100
5648	0.272200
5659	0.272300
5664	0.272400
5684	0.272500
5689	0.272600
5695	0.272700
5699	0.272800
5706	0.272900
5725	0.273000
5754	0.273100
5772	0.273200
5788	0.273300
5790	0.273400
5815	0.273500
5857	0.273600
5867	0.273700
5887	0.273800
5897	0.273900
5911	0.274000
5942	0.274100
5943	0.274200
5958	0.274300
5964	0.274400
5969	0.274500
5972	0.274600
5976	0.274700
5990	0.274800
6021	0.274900
6033	0.275000
6034	0.275100
6060	0.275200
6062	0.275300
6067	0.275400
6076	0.275500
6079	0.275600
6086	0.275700
6094	0.275800
6123	0.275900
6154	0.276000
6157	0.276100
6167	0.276200
6188	0.276300
6190	0.276400
6232	0.276500
6258	0.276600
6263	0.276700
6273	0.276800
6279	0.276900
6313	0.277000
6339	0.277100
6342	0.277200
6368	0.277300
6381	0.277400
6384	0.277500
6393	0.277600
6398	0.277700
6417	0.277800
6439	0.277900
6462	0.278000
6470	0.278100
6499	0.278200
6516	0.278300
6517	0.278400
6518	0.278500
6529	0.278600
6531	0.278700
6539	0.278800
6559	0.278900
6579	0.279000
6598	0.279100
6601	0.279200
6607	0.279300
6614	0.279500
6626	0.279600
6627	0.279700
6635	0.279800
6640	0.279900
6647	0.280000
6659	0.280100
6670	0.280200
6678	0.280300
6690	0.280400
6760	0.280500
6782	0.280600
6794	0.280700
6824	0.280800
6867	0.280900
6894	0.281000
6898	0.281100
6900	0.281200
6909	0.281300
6930	0.281400
6949	0.281500
6960	0.281600
6983	0.281700
6994	0.281800
7069	0.281900
7070	0.282000
7084	0.282100
7104	0.282200
7111	0.282300
7119	0.282400
7173	0.282500
7188	0.282600
7214	0.282700
7218	0.282800
7227	0.282900
7246	0.283000
7270	0.283100
7271	0.283200
7272	0.283400
7314	0.283500
7343	0.283600
7387	0.283700
7395	0.283800
7399	0.283900
7412	0.284000
7432	0.284100
7436	0.284200
7446	0.284300
7468	0.284400
7470	0.284500
7497	0.284600
7505	0.284700
7543	0.284800
7544	0.284900
7571	0.285000
7576	0.285100
7589	0.285200
7596	0.285300
7598	0.285400
7624	0.285500
7641	0.285600
7642	0.285700
7653	0.285800
7666	0.285900
7675	0.286000
7682	0.286100
7708	0.286200
7712	0.286300
7715	0.286400
7727	0.286500
7732	0.286600
7747	0.286700
7776	0.286800
7803	0.286900
7832	0.287000
7864	0.287100
7874	0.287200
7915	0.287300
7925	0.287400
7943	0.287500
7968	0.287600
7975	0.287800
7982	0.287900
8005	0.288000
8012	0.288100
8014	0.288200
8024	0.288300
8026	0.288400
8043	0.288500
8056	0.288600
8057	0.288700
8104	0.288800
8109	0.288900
8116	0.289000
8128	0.289100
8141	0.289200
8223	0.289300
8244	0.289500
8256	0.289600
8262	0.289700
8293	0.289800
8294	0.289900
8314	0.290000
8328	0.290100
8330	0.290200
8331	0.290300
8354	0.290400
8355	0.290500
8382	0.290600
8388	0.290700
8416	0.290800
8436	0.290900
8477	0.291000
8483	0.291200
8484	0.291300
8499	0.291400
8506	0.291500
8535	0.291600
8565	0.291700
8570	0.291800
8593	0.291900
8602	0.292000
8607	0.292100
8639	0.292200
8648	0.292300
8686	0.292400
8688	0.292500
8693	0.292600
8731	0.292700
8751	0.292800
8792	0.292900
8813	0.293000
8815	0.293100
8818	0.293200
8835	0.293300
8862	0.293400
8881	0.293500
8888	0.293600
8890	0.293700
8910	0.293800
8949	0.293900
8957	0.294000
8970	0.294100
8981	0.294200
8989	0.294300
9022	0.294400
9026	0.294500
9041	0.294600
9044	0.294700
9050	0.294800
9074	0.294900
9075	0.295000
9112	0.295100
9124	0.295200
9162	0.295300
9165	0.295400
9312	0.295500
9324	0.295600
9339	0.295700
9345	0.295800
9355	0.295900
9358	0.296000
9375	0.296100
9387	0.296200
9390	0.296300
9393	0.296400
9395	0.296500
9403	0.296600
9412	0.296700
9456	0.296800
9464	0.296900
9544	0.297000
9551	0.297100
9586	0.297200
