key	frequency
0	0.004767
1	0.008018
2	0.010352
3	0.012169
4	0.014036
5	0.015786
6	0.017220
7	0.018170
8	0.019103
9	0.019970
10	0.020987
11	0.021937
12	0.022637
13	0.023354
14	0.023887
15	0.024387
16	0.025171
17	0.025921
18	0.026471
19	0.027088
20	0.027521
21	0.028221
22	0.029038
23	0.029455
24	0.030022
25	0.030522
26	0.030988
27	0.031455
28	0.031872
29	0.032139
30	0.032389
31	0.032739
32	0.033172
33	0.033672
34	0.034306
35	0.034689
36	0.035089
37	0.035406
38	0.035873
39	0.036173
40	0.036656
41	0.036923
42	0.037256
43	0.037473
44	0.037840
45	0.038123
46	0.038456
47	0.038923
48	0.039173
49	0.039507
50	0.039857
51	0.040140
52	0.040457
53	0.040857
54	0.041324
55	0.041607
56	0.041840
57	0.042040
58	0.042340
59	0.042540
60	0.042757
61	0.043024
62	0.043307
63	0.043574
64	0.043757
65	0.044074
66	0.044291
67	0.044541
68	0.044824
69	0.045174
70	0.045324
71	0.045491
72	0.045774
73	0.045958
74	0.046224
75	0.046491
76	0.046641
77	0.046891
78	0.047125
79	0.047275
80	0.047425
81	0.047575
82	0.047741
83	0.047858
84	0.048058
85	0.048191
86	0.048408
87	0.048658
88	0.048925
89	0.049208
90	0.049408
91	0.049542
92	0.049742
93	0.049975
94	0.050142
95	0.050242
96	0.050408
97	0.050608
98	0.050792
99	0.050942
100	0.051192
101	0.051375
102	0.051592
103	0.051709
104	0.051859
105	0.052009
106	0.052175
107	0.052375
108	0.052542
109	0.052775
110	0.053109
111	0.053242
112	0.053426
113	0.053492
114	0.053676
115	0.053892
116	0.054092
117	0.054159
118	0.054459
119	0.054626
120	0.054759
121	0.054976
122	0.055093
123	0.055243
124	0.055376
125	0.055509
126	0.055643
127	0.055809
128	0.055926
129	0.056059
130	0.056293
131	0.056426
132	0.056576
133	0.056743
134	0.056959
135	0.057143
136	0.057226
137	0.057376
138	0.057443
139	0.057710
140	0.057843
141	0.057960
142	0.058076
143	0.058276
144	0.058410
145	0.058526
146	0.058726
147	0.058893
148	0.059143
149	0.059310
150	0.059393
151	0.059493
152	0.059543
153	0.059627
154	0.059777
155	0.059893
156	0.060043
157	0.060127
158	0.060227
159	0.060360
160	0.060410
161	0.060527
162	0.060693
163	0.060810
164	0.060910
165	0.061010
166	0.061094
167	0.061210
168	0.061344
169	0.061477
170	0.061610
171	0.061710
172	0.061810
173	0.061877
174	0.062010
175	0.062160
176	0.062344
177	0.062460
178	0.062577
179	0.062710
180	0.062827
181	0.062977
182	0.063161
183	0.063277
184	0.063344
185	0.063477
186	0.063677
187	0.063811
188	0.063944
189	0.064111
190	0.064261
191	0.064377
192	0.064561
193	0.064727
194	0.064861
195	0.064944
196	0.065044
197	0.065111
198	0.065261
199	0.065328
200	0.065411
201	0.065561
202	0.065694
203	0.065911
204	0.065961
205	0.066044
206	0.066244
207	0.066461
208	0.066611
209	0.066711
210	0.066761
211	0.066894
212	0.067045
213	0.067178
214	0.067295
215	0.067345
216	0.067445
217	0.067528
218	0.067611
219	0.067695
220	0.067811
221	0.067978
222	0.068078
223	0.068178
224	0.068228
225	0.068361
226	0.068495
227	0.068578
228	0.068728
229	0.068778
230	0.068828
231	0.068911
232	0.069028
233	0.069212
234	0.069345
235	0.069478
236	0.069612
237	0.069728
238	0.069828
239	0.069928
240	0.070062
241	0.070128
242	0.070212
243	0.070295
244	0.070345
245	0.070445
246	0.070528
247	0.070612
248	0.070745
249	0.070812
250	0.070845
251	0.070928
252	0.071045
253	0.071095
254	0.071179
255	0.071329
256	0.071462
257	0.071612
258	0.071762
259	0.071929
260	0.071945
261	0.072079
262	0.072145
263	0.072195
264	0.072379
265	0.072545
266	0.072645
267	0.072812
268	0.072879
269	0.072929
270	0.073079
271	0.073212
272	0.073296
273	0.073362
274	0.073429
275	0.073529
276	0.073679
277	0.073729
278	0.073862
279	0.073979
280	0.074146
281	0.074179
282	0.074262
283	0.074296
284	0.074312
285	0.074462
286	0.074579
287	0.074779
288	0.074829
289	0.074896
290	0.074962
291	0.075079
292	0.075213
293	0.075246
294	0.075313
295	0.075379
296	0.075513
297	0.075596
298	0.075679
299	0.075779
300	0.075913
301	0.076013
302	0.076096
303	0.076196
304	0.076296
305	0.076363
306	0.076463
307	0.076563
308	0.076646
309	0.076729
310	0.076829
311	0.076963
312	0.077013
313	0.077080
314	0.077130
315	0.077196
316	0.077346
317	0.077380
318	0.077480
319	0.077546
320	0.077646
321	0.077696
322	0.077796
323	0.077830
324	0.077946
325	0.077963
326	0.078013
327	0.078046
328	0.078113
329	0.078180
330	0.078230
331	0.078246
332	0.078396
333	0.078430
334	0.078546
335	0.078580
336	0.078663
337	0.078696
338	0.078746
339	0.078880
340	0.078930
341	0.079013
342	0.079047
343	0.079230
344	0.079380
345	0.079413
346	0.079563
347	0.079630
348	0.079713
349	0.079830
350	0.079913
351	0.079963
352	0.080063
353	0.080147
354	0.080263
355	0.080313
357	0.080413
358	0.080463
359	0.080580
360	0.080663
361	0.080797
362	0.080880
363	0.080997
364	0.081114
365	0.081180
366	0.081214
368	0.081230
369	0.081314
370	0.081347
371	0.081430
372	0.081497
373	0.081547
374	0.081597
375	0.081714
376	0.081780
377	0.081847
378	0.081914
379	0.081947
380	0.082064
381	0.082147
382	0.082230
383	0.082347
384	0.082414
385	0.082464
386	0.082580
387	0.082614
389	0.082747
390	0.082797
391	0.082847
392	0.082947
393	0.083064
394	0.083197
395	0.083231
396	0.083297
397	0.083464
398	0.083514
399	0.083564
400	0.083731
401	0.083781
402	0.083831
403	0.083881
404	0.083947
405	0.084064
406	0.084147
407	0.084214
408	0.084281
409	0.084381
410	0.084464
411	0.084497
413	0.084597
414	0.084697
415	0.084814
416	0.084864
417	0.084897
418	0.085048
419	0.085081
420	0.085148
421	0.085231
422	0.085381
423	0.085481
424	0.085614
425	0.085714
426	0.085814
427	0.085864
428	0.085914
429	0.085964
430	0.086031
431	0.086098
432	0.086114
433	0.086214
434	0.086264
435	0.086348
436	0.086431
437	0.086514
438	0.086531
439	0.086548
440	0.086648
441	0.086664
442	0.086714
443	0.086798
444	0.086864
445	0.086898
446	0.086981
447	0.087048
448	0.087115
449	0.087165
450	0.087215
451	0.087265
452	0.087298
453	0.087348
454	0.087415
455	0.087498
456	0.087515
457	0.087631
458	0.087698
459	0.087765
460	0.087798
461	0.087848
462	0.087898
463	0.087948
465	0.087981
466	0.088098
467	0.088165
468	0.088181
469	0.088198
470	0.088265
471	0.088298
472	0.088331
473	0.088415
474	0.088481
475	0.088548
476	0.088631
477	0.088648
478	0.088715
479	0.088731
480	0.088765
481	0.088831
482	0.088931
483	0.088948
484	0.088965
485	0.088981
486	0.088998
487	0.089065
488	0.089115
489	0.089198
490	0.089265
491	0.089415
492	0.089448
493	0.089482
494	0.089565
495	0.089632
496	0.089698
497	0.089798
498	0.089832
499	0.089865
500	0.089915
501	0.090015
502	0.090098
503	0.090215
504	0.090282
505	0.090315
506	0.090332
507	0.090432
509	0.090498
510	0.090598
511	0.090648
512	0.090715
513	0.090782
514	0.090798
515	0.090948
516	0.091032
517	0.091099
518	0.091165
519	0.091199
520	0.091265
521	0.091349
522	0.091432
523	0.091532
524	0.091632
525	0.091699
526	0.091715
528	0.091749
529	0.091832
530	0.091882
531	0.091915
532	0.091982
533	0.092065
534	0.092099
535	0.092165
536	0.092232
537	0.092349
538	0.092399
539	0.092449
540	0.092482
541	0.092582
542	0.092632
543	0.092715
544	0.092749
545	0.092782
546	0.092849
547	0.092965
548	0.093032
549	0.093082
550	0.093132
551	0.093182
552	0.093232
553	0.093316
554	0.093382
555	0.093449
556	0.093516
557	0.093566
558	0.093716
559	0.093782
560	0.093866
561	0.093916
562	0.094032
563	0.094132
564	0.094149
565	0.094232
566	0.094266
567	0.094366
568	0.094432
569	0.094482
570	0.094566
571	0.094632
572	0.094716
573	0.094766
574	0.094799
575	0.094866
576	0.094949
577	0.095049
578	0.095099
579	0.095149
580	0.095233
581	0.095249
582	0.095266
583	0.095316
584	0.095383
585	0.095416
586	0.095466
587	0.095566
588	0.095583
589	0.095599
590	0.095733
591	0.095766
592	0.095783
593	0.095816
594	0.095833
595	0.095849
596	0.095916
597	0.095966
598	0.096016
599	0.096049
600	0.096083
601	0.096133
603	0.096233
604	0.096249
605	0.096316
606	0.096399
607	0.096416
608	0.096449
609	0.096499
610	0.096566
611	0.096616
612	0.096683
613	0.096716
614	0.096783
615	0.096799
616	0.096866
617	0.096883
618	0.096933
619	0.096983
620	0.097050
621	0.097150
622	0.097183
623	0.097283
624	0.097316
625	0.097383
626	0.097400
627	0.097550
628	0.097650
629	0.097733
630	0.097800
631	0.097866
632	0.097883
633	0.097933
634	0.097966
635	0.098033
636	0.098133
637	0.098183
638	0.098216
639	0.098266
640	0.098300
641	0.098416
642	0.098466
643	0.098500
645	0.098583
646	0.098616
647	0.098666
648	0.098716
649	0.098816
650	0.098900
651	0.099017
652	0.099067
654	0.099117
655	0.099167
656	0.099267
657	0.099333
658	0.099383
659	0.099450
660	0.099500
661	0.099533
662	0.099633
664	0.099650
665	0.099717
666	0.099750
667	0.099850
668	0.099883
669	0.099917
670	0.099933
671	0.099950
672	0.099983
673	0.100017
674	0.100050
676	0.100067
677	0.100117
678	0.100150
679	0.100233
680	0.100317
681	0.100417
682	0.100433
683	0.100450
684	0.100483
685	0.100500
686	0.100533
687	0.100617
688	0.100650
689	0.100717
690	0.100750
692	0.100767
693	0.100800
694	0.100867
695	0.100933
696	0.100950
697	0.101034
698	0.101067
699	0.101100
700	0.101134
701	0.101167
702	0.101200
703	0.101267
704	0.101367
705	0.101417
706	0.101450
707	0.101484
708	0.101534
709	0.101584
710	0.101667
712	0.101700
714	0.101734
715	0.101767
716	0.101884
717	0.101934
718	0.101950
719	0.101984
720	0.102050
721	0.102100
722	0.102167
723	0.102200
724	0.102250
725	0.102300
726	0.102350
727	0.102417
729	0.102500
730	0.102517
731	0.102550
732	0.102634
733	0.102684
734	0.102734
736	0.102767
737	0.102817
738	0.102917
739	0.102984
740	0.103017
741	0.103084
742	0.103201
743	0.103217
745	0.103251
746	0.103367
747	0.103451
748	0.103501
749	0.103584
750	0.103601
751	0.103634
752	0.103717
753	0.103751
754	0.103801
755	0.103851
756	0.103901
757	0.103934
758	0.104017
759	0.104101
760	0.104134
761	0.104184
762	0.104234
763	0.104284
764	0.104334
765	0.104351
766	0.104367
767	0.104417
768	0.104467
769	0.104517
770	0.104551
771	0.104601
772	0.104667
773	0.104684
774	0.104751
775	0.104801
776	0.104884
777	0.104917
778	0.104984
779	0.105034
781	0.105084
782	0.105101
783	0.105151
784	0.105184
785	0.105234
786	0.105301
790	0.105351
791	0.105401
792	0.105451
793	0.105534
794	0.105601
795	0.105634
796	0.105684
797	0.105751
798	0.105818
799	0.105851
800	0.105868
802	0.105901
803	0.106001
804	0.106018
805	0.106101
806	0.106118
807	0.106151
808	0.106201
809	0.106284
810	0.106301
811	0.106351
812	0.106401
813	0.106484
814	0.106518
816	0.106568
817	0.106651
818	0.106701
819	0.106784
820	0.106801
821	0.106834
822	0.106868
825	0.106884
826	0.106934
827	0.106951
828	0.106968
829	0.107035
830	0.107101
831	0.107151
832	0.107201
833	0.107251
834	0.107318
835	0.107401
836	0.107535
837	0.107568
838	0.107635
840	0.107701
841	0.107751
842	0.107768
843	0.107818
844	0.107851
845	0.107901
846	0.107968
847	0.108051
848	0.108135
849	0.108185
850	0.108235
852	0.108251
853	0.108268
854	0.108318
855	0.108368
856	0.108385
857	0.108401
858	0.108451
859	0.108485
860	0.108585
861	0.108635
862	0.108751
863	0.108785
864	0.108835
865	0.108868
866	0.108901
867	0.108935
869	0.108951
870	0.109002
871	0.109018
872	0.109085
873	0.109102
874	0.109135
875	0.109168
876	0.109218
877	0.109268
878	0.109335
879	0.109402
880	0.109418
881	0.109452
882	0.109468
883	0.109502
884	0.109535
886	0.109552
887	0.109602
888	0.109685
889	0.109735
890	0.109785
891	0.109818
892	0.109852
893	0.109935
894	0.109968
895	0.110068
896	0.110102
898	0.110152
899	0.110235
900	0.110268
901	0.110335
902	0.110402
903	0.110435
904	0.110568
905	0.110602
906	0.110618
907	0.110702
909	0.110718
910	0.110752
911	0.110768
912	0.110918
913	0.110968
914	0.111035
915	0.111069
916	0.111085
917	0.111169
918	0.111235
919	0.111285
920	0.111352
922	0.111369
923	0.111452
924	0.111485
925	0.111602
926	0.111652
927	0.111685
928	0.111735
929	0.111752
930	0.111802
931	0.111819
932	0.111835
933	0.111885
934	0.111902
935	0.111935
936	0.111952
938	0.111985
939	0.112019
940	0.112052
941	0.112119
942	0.112185
943	0.112252
944	0.112302
945	0.112319
946	0.112419
948	0.112502
949	0.112519
950	0.112585
951	0.112635
952	0.112669
954	0.112685
955	0.112785
956	0.112819
957	0.112835
958	0.112885
959	0.112919
960	0.112969
961	0.112985
962	0.113019
963	0.113069
965	0.113119
966	0.113169
968	0.113219
969	0.113269
970	0.113319
971	0.113369
972	0.113386
973	0.113419
974	0.113436
975	0.113502
976	0.113552
978	0.113569
979	0.113636
980	0.113669
981	0.113719
982	0.113786
983	0.113836
984	0.113852
985	0.113902
986	0.113952
987	0.113986
988	0.114052
989	0.114069
990	0.114102
991	0.114136
992	0.114169
994	0.114186
995	0.114202
996	0.114236
997	0.114302
998	0.114336
999	0.114369
1000	0.114419
1001	0.114452
1002	0.114469
1003	0.114519
1005	0.114536
1006	0.114569
1007	0.114602
1008	0.114636
1009	0.114686
1010	0.114719
1011	0.114736
1012	0.114786
1013	0.114802
1014	0.114852
1016	0.114919
1017	0.114986
1018	0.115019
1019	0.115036
1020	0.115103
1021	0.115136
1022	0.115186
1023	0.115219
1024	0.115253
1025	0.115269
1026	0.115303
1027	0.115336
1029	0.115353
1030	0.115386
1033	0.115436
1034	0.115469
1035	0.115536
1036	0.115569
1037	0.115586
1038	0.115636
1039	0.115719
1040	0.115753
1041	0.115769
1042	0.115803
1043	0.115886
1044	0.115903
1047	0.115953
1048	0.115986
1049	0.116053
1050	0.116086
1051	0.116103
1052	0.116203
1053	0.116236
1054	0.116253
1055	0.116269
1056	0.116336
1057	0.116386
1058	0.116403
1059	0.116469
1060	0.116486
1061	0.116536
1062	0.116553
1063	0.116569
1064	0.116636
1065	0.116686
1066	0.116719
1067	0.116753
1068	0.116786
1069	0.116853
1071	0.116903
1072	0.116969
1073	0.117003
1074	0.117020
1075	0.117053
1076	0.117070
1077	0.117120
1078	0.117136
1079	0.117170
1080	0.117203
1081	0.117220
1083	0.117253
1084	0.117303
1085	0.117370
1086	0.117420
1088	0.117470
1089	0.117503
1090	0.117520
1091	0.117536
1092	0.117570
1093	0.117620
1094	0.117670
1095	0.117686
1096	0.117736
1097	0.117753
1098	0.117786
1099	0.117820
1100	0.117870
1101	0.117886
1102	0.117970
1103	0.118003
1104	0.118036
1105	0.118070
1106	0.118103
1107	0.118170
1108	0.118203
1109	0.118253
1110	0.118286
1111	0.118303
1112	0.118336
1113	0.118403
1114	0.118453
1116	0.118520
1117	0.118553
1118	0.118570
1119	0.118586
1120	0.118620
1121	0.118670
1122	0.118686
1123	0.118720
1124	0.118753
1125	0.118786
1128	0.118803
1129	0.118820
1130	0.118886
1131	0.118903
1132	0.118936
1133	0.118953
1134	0.118970
1135	0.119003
1136	0.119070
1139	0.119087
1140	0.119120
1141	0.119153
1142	0.119187
1143	0.119237
1144	0.119270
1145	0.119287
1146	0.119303
1147	0.119320
1148	0.119337
1150	0.119403
1151	0.119453
1152	0.119470
1153	0.119537
1154	0.119637
1155	0.119687
1156	0.119720
1157	0.119787
1158	0.119820
1159	0.119837
1160	0.119870
1161	0.119887
1162	0.119920
1163	0.119953
1164	0.119987
1165	0.120020
1166	0.120037
1167	0.120120
1169	0.120137
1170	0.120203
1171	0.120237
1172	0.120270
1173	0.120303
1174	0.120337
1175	0.120370
1177	0.120403
1178	0.120420
1179	0.120470
1180	0.120487
1181	0.120553
1182	0.120637
1183	0.120653
1184	0.120670
1186	0.120703
1187	0.120737
1188	0.120803
1189	0.120837
1190	0.120853
1191	0.120887
1192	0.121004
1193	0.121054
1194	0.121104
1195	0.121120
1196	0.121137
1198	0.121154
1199	0.121237
1200	0.121270
1201	0.121304
1202	0.121337
1203	0.121370
1204	0.121404
1205	0.121420
1206	0.121470
1207	0.121504
1208	0.121520
1209	0.121554
1210	0.121570
1211	0.121620
1212	0.121637
1213	0.121687
1214	0.121737
1215	0.121820
1216	0.121870
1218	0.121887
1219	0.121920
1220	0.121970
1221	0.122037
1223	0.122054
1224	0.122104
1225	0.122154
1226	0.122220
1227	0.122270
1228	0.122320
1229	0.122370
1230	0.122404
1231	0.122420
1232	0.122454
1233	0.122504
1235	0.122537
1236	0.122554
1237	0.122570
1238	0.122620
1239	0.122687
1241	0.122754
1242	0.122770
1243	0.122804
1244	0.122837
1245	0.122904
1246	0.122937
1248	0.122970
1249	0.123021
1250	0.123071
1251	0.123087
1252	0.123104
1253	0.123171
1254	0.123237
1255	0.123337
1256	0.123354
1258	0.123371
1259	0.123387
1260	0.123421
1261	0.123454
1262	0.123504
1263	0.123554
1264	0.123571
1266	0.123604
1267	0.123637
1269	0.123704
1270	0.123721
1271	0.123737
1272	0.123821
1273	0.123854
1274	0.123871
1275	0.123904
1276	0.123937
1277	0.123954
1278	0.123971
1279	0.124054
1280	0.124071
1281	0.124137
1282	0.124154
1283	0.124187
1284	0.124204
1286	0.124254
1287	0.124287
1288	0.124321
1289	0.124354
1290	0.124387
1291	0.124421
1292	0.124471
1294	0.124504
1295	0.124521
1296	0.124537
1300	0.124554
1301	0.124571
1302	0.124604
1303	0.124637
1304	0.124671
1305	0.124704
1308	0.124721
1309	0.124737
1310	0.124754
1312	0.124787
1314	0.124821
1316	0.124837
1317	0.124871
1318	0.124887
1319	0.124921
1320	0.124937
1321	0.125004
1322	0.125054
1323	0.125071
1324	0.125138
1325	0.125204
1329	0.125254
1330	0.125288
1331	0.125304
1332	0.125338
1333	0.125404
1334	0.125421
1335	0.125471
1337	0.125488
1338	0.125538
1339	0.125571
1340	0.125604
1343	0.125654
1344	0.125671
1346	0.125738
1347	0.125804
1349	0.125871
1350	0.125888
1351	0.125904
1352	0.125954
1354	0.125971
1357	0.126038
1358	0.126154
1359	0.126171
1360	0.126221
1361	0.126271
1362	0.126321
1363	0.126354
1364	0.126388
1365	0.126454
1366	0.126471
1368	0.126488
1369	0.126554
1370	0.126571
1371	0.126588
1372	0.126638
1373	0.126671
1374	0.126704
1376	0.126721
1377	0.126754
1379	0.126788
1380	0.126838
1381	0.126871
1382	0.126938
1383	0.126971
1384	0.127021
1385	0.127055
1386	0.127071
1387	0.127088
1388	0.127105
1390	0.127155
1392	0.127188
1393	0.127205
1394	0.127221
1395	0.127255
1396	0.127321
1398	0.127371
1400	0.127405
1401	0.127438
1402	0.127488
1403	0.127538
1404	0.127571
1405	0.127588
1406	0.127621
1407	0.127638
1408	0.127671
1409	0.127688
1410	0.127721
1412	0.127738
1413	0.127805
1414	0.127855
1415	0.127905
1417	0.127938
1418	0.127971
1419	0.127988
1420	0.128005
1421	0.128055
1423	0.128121
1424	0.128171
1425	0.128188
1426	0.128205
1427	0.128238
1429	0.128271
1430	0.128288
1431	0.128321
1432	0.128338
1433	0.128388
1434	0.128438
1435	0.128455
1436	0.128471
1437	0.128488
1441	0.128521
1443	0.128555
1444	0.128571
1445	0.128605
1446	0.128638
1447	0.128671
1448	0.128705
1449	0.128721
1450	0.128755
1451	0.128788
1452	0.128821
1453	0.128838
1454	0.128871
1455	0.128905
1456	0.128938
1457	0.128955
1458	0.128988
1459	0.129022
1460	0.129055
1461	0.129138
1462	0.129155
1463	0.129238
1465	0.129272
1466	0.129288
1467	0.129322
1468	0.129422
1469	0.129438
1470	0.129472
1472	0.129488
1473	0.129505
1474	0.129522
1475	0.129605
1476	0.129638
1477	0.129672
1478	0.129722
1479	0.129738
1480	0.129788
1481	0.129805
1482	0.129838
1483	0.129855
1484	0.129888
1485	0.129972
1486	0.129988
1487	0.130022
1488	0.130055
1489	0.130072
1490	0.130105
1491	0.130138
1492	0.130205
1493	0.130222
1494	0.130272
1495	0.130305
1496	0.130372
1497	0.130405
1498	0.130472
1499	0.130538
1501	0.130588
1502	0.130622
1503	0.130655
1504	0.130672
1505	0.130688
1506	0.130705
1507	0.130722
1508	0.130755
1510	0.130805
1511	0.130905
1512	0.130922
1514	0.130972
1516	0.130988
1518	0.131022
1519	0.131105
1520	0.131172
1521	0.131189
1522	0.131239
1523	0.131255
1524	0.131322
1526	0.131355
1528	0.131389
1530	0.131405
1531	0.131422
1533	0.131472
1534	0.131505
1536	0.131555
1537	0.131605
1538	0.131622
1539	0.131672
1541	0.131689
1542	0.131772
1543	0.131789
1544	0.131805
1545	0.131855
1546	0.131889
1547	0.131905
1548	0.131922
1549	0.131972
1550	0.132039
1552	0.132072
1553	0.132122
1555	0.132155
1556	0.132205
1557	0.132222
1558	0.132255
1559	0.132322
1561	0.132389
1562	0.132439
1563	0.132455
1564	0.132522
1565	0.132555
1566	0.132572
1567	0.132622
1568	0.132655
1569	0.132689
1570	0.132722
1571	0.132772
1572	0.132839
1574	0.132872
1575	0.132889
1576	0.132922
1578	0.132972
1579	0.133006
1580	0.133022
1581	0.133039
1583	0.133106
1584	0.133172
1585	0.133189
1587	0.133206
1588	0.133239
1589	0.133272
1590	0.133339
1591	0.133356
1592	0.133406
1593	0.133422
1594	0.133456
1595	0.133472
1596	0.133489
1599	0.133506
1600	0.133539
1602	0.133606
1603	0.133622
1605	0.133656
1606	0.133672
1607	0.133722
1608	0.133739
1609	0.133756
1611	0.133822
1612	0.133872
1613	0.133922
1614	0.134006
1615	0.134072
1617	0.134156
1618	0.134172
1619	0.134189
1620	0.134222
1622	0.134239
1624	0.134256
1625	0.134272
1626	0.134306
1627	0.134339
1628	0.134372
1629	0.134406
1630	0.134422
1631	0.134456
1632	0.134506
1635	0.134522
1638	0.134572
1639	0.134589
