key	frequency
0	0.000100
7	0.000200
10	0.000300
15	0.000400
30	0.000500
38	0.000600
69	0.000700
105	0.000800
137	0.000900
149	0.001000
184	0.001100
200	0.001200
212	0.001300
221	0.001400
261	0.001500
270	0.001600
368	0.001700
376	0.001800
411	0.001900
455	0.002000
480	0.002100
481	0.002200
488	0.002300
514	0.002500
650	0.002600
651	0.002700
658	0.002800
697	0.002900
709	0.003000
724	0.003100
732	0.003200
747	0.003300
795	0.003400
854	0.003500
856	0.003600
858	0.003700
998	0.003800
1003	0.003900
1012	0.004000
1020	0.004100
1055	0.004200
1091	0.004300
1108	0.004400
1141	0.004500
1245	0.004600
1251	0.004700
1317	0.004800
1331	0.004900
1351	0.005000
1400	0.005100
1414	0.005200
1436	0.005300
1518	0.005400
1544	0.005500
1598	0.005600
1661	0.005700
1669	0.005800
1692	0.006000
1745	0.006100
1843	0.006200
1873	0.006300
1885	0.006400
1896	0.006500
1922	0.006600
1929	0.006700
1970	0.006800
1975	0.006900
1999	0.007000
2029	0.007100
2069	0.007200
2085	0.007300
2098	0.007400
2109	0.007500
2156	0.007600
2214	0.007700
2238	0.007800
2284	0.007900
2300	0.008000
2301	0.008100
2397	0.008200
2419	0.008300
2432	0.008400
2453	0.008500
2517	0.008600
2586	0.008700
2628	0.008800
2635	0.008900
2636	0.009000
2651	0.009100
2696	0.009200
2714	0.009300
2751	0.009400
2752	0.009500
2778	0.009600
2784	0.009700
2806	0.009800
2850	0.009900
2953	0.010000
2975	0.010100
2994	0.010200
3006	0.010300
3041	0.010400
3090	0.010500
3187	0.010600
3233	0.010700
3250	0.010800
3259	0.010900
3268	0.011000
3309	0.011100
3360	0.011200
3378	0.011300
3405	0.011400
3411	0.011500
3427	0.011600
3446	0.011700
3454	0.011800
3490	0.011900
3525	0.012000
3545	0.012100
3701	0.012200
3852	0.012300
3894	0.012400
3899	0.012500
4010	0.012600
4047	0.012700
4083	0.012800
4105	0.012900
4166	0.013000
4244	0.013100
4260	0.013200
4261	0.013300
4277	0.013400
4404	0.013500
4438	0.013600
4455	0.013700
4473	0.013800
4498	0.013900
4529	0.014000
4537	0.014100
4604	0.014200
4610	0.014300
4693	0.014400
4702	0.014500
4767	0.014600
4780	0.014700
4803	0.014800
4815	0.014900
4869	0.015000
4881	0.015100
4973	0.015200
5010	0.015300
5076	0.015500
5090	0.015600
5092	0.015700
5111	0.015800
5113	0.015900
5120	0.016000
5344	0.016100
5390	0.016200
5404	0.016300
5430	0.016400
5451	0.016500
5557	0.016600
5562	0.016700
5575	0.016800
5580	0.016900
5641	0.017000
5678	0.017100
5743	0.017200
5755	0.017300
5862	0.017400
6032	0.017500
6056	0.017600
6064	0.017700
6161	0.017800
6196	0.017900
6213	0.018000
6221	0.018100
6250	0.018200
6260	0.018300
6293	0.018400
6313	0.018500
6371	0.018600
6397	0.018700
6430	0.018800
6458	0.018900
6552	0.019000
6585	0.019100
6593	0.019200
6610	0.019300
6651	0.019400
6721	0.019500
6792	0.019600
6831	0.019700
6862	0.019800
6898	0.019900
6903	0.020000
6963	0.020100
6967	0.020200
7006	0.020300
7046	0.020400
7083	0.020500
7204	0.020600
7370	0.020700
7395	0.020800
7431	0.020900
7449	0.021000
7481	0.021100
7624	0.021200
7705	0.021300
7781	0.021400
7863	0.021500
7890	0.021600
7897	0.021700
8016	0.021800
8034	0.021900
8063	0.022000
8069	0.022100
8077	0.022200
8127	0.022300
8200	0.022400
8205	0.022500
8207	0.022600
8313	0.022700
8361	0.022800
8384	0.022900
8438	0.023000
8555	0.023100
8595	0.023200
8600	0.023300
8710	0.023400
8828	0.023500
8830	0.023600
8931	0.023700
8988	0.023800
9105	0.023900
9246	0.024000
9295	0.024100
9445	0.024200
9514	0.024300
9534	0.024400
9558	0.024500
9645	0.024600
9742	0.024700
9746	0.024800
9749	0.024900
9778	0.025000
9912	0.025100
9916	0.025200
9941	0.025300
9945	0.025400
10008	0.025500
10035	0.025600
10156	0.025700
10224	0.025800
10303	0.025900
10430	0.026000
10445	0.026100
10515	0.026200
10629	0.026300
10658	0.026400
10665	0.026500
10704	0.026600
10716	0.026700
10778	0.026800
10812	0.026900
10823	0.027000
10882	0.027100
10895	0.027200
10926	0.027300
10950	0.027400
10983	0.027500
10995	0.027600
11065	0.027700
11072	0.027800
11134	0.027900
11254	0.028000
11262	0.028100
11282	0.028200
11322	0.028300
11345	0.028400
11391	0.028500
11522	0.028600
11702	0.028700
11726	0.028800
11823	0.028900
11832	0.029000
11907	0.029100
11925	0.029200
11945	0.029300
12027	0.029400
12048	0.029500
12088	0.029600
12188	0.029700
12229	0.029800
12275	0.029900
12343	0.030000
12422	0.030100
12453	0.030200
12575	0.030300
12678	0.030400
12859	0.030500
12871	0.030600
12934	0.030700
12961	0.030800
12973	0.030900
12996	0.031000
13040	0.031100
13050	0.031200
13106	0.031300
13283	0.031400
13298	0.031500
13349	0.031600
13397	0.031700
13495	0.031800
13530	0.031900
13637	0.032000
13649	0.032100
13656	0.032200
13659	0.032300
13695	0.032400
13716	0.032500
13792	0.032600
13966	0.032700
14078	0.032800
14124	0.032900
14213	0.033000
14222	0.033100
14270	0.033200
14390	0.033300
14487	0.033400
14561	0.033500
14621	0.033600
14629	0.033700
14640	0.033800
14770	0.033900
14834	0.034000
14847	0.034100
14853	0.034200
14878	0.034300
14901	0.034400
15005	0.034500
15028	0.034600
15078	0.034700
15099	0.034800
15169	0.034900
15235	0.035000
15267	0.035100
15269	0.035200
15300	0.035300
15314	0.035400
15339	0.035500
15350	0.035600
15360	0.035700
15371	0.035800
15392	0.035900
15456	0.036000
15485	0.036100
15584	0.036200
15636	0.036300
15641	0.036400
15667	0.036500
15689	0.036600
15767	0.036800
15849	0.036900
15875	0.037000
15880	0.037100
15907	0.037200
15908	0.037300
15986	0.037400
16095	0.037500
16126	0.037600
16158	0.037700
16244	0.037800
16299	0.037900
16371	0.038000
16442	0.038100
16477	0.038200
16492	0.038300
16498	0.038400
16506	0.038500
16583	0.038600
16624	0.038700
16696	0.038800
16793	0.038900
16805	0.039000
16881	0.039100
17226	0.039200
17349	0.039300
17354	0.039400
17408	0.039500
17429	0.039600
17517	0.039700
17588	0.039800
17678	0.039900
17736	0.040000
17737	0.040100
17755	0.040200
17781	0.040300
17808	0.040400
17831	0.040500
17864	0.040600
17905	0.040700
17960	0.040800
18049	0.040900
18145	0.041000
18148	0.041100
18226	0.041200
18252	0.041300
18311	0.041400
18337	0.041500
18436	0.041600
18447	0.041700
18462	0.041900
18503	0.042000
18515	0.042100
18565	0.042200
18682	0.042300
18712	0.042400
18829	0.042500
18834	0.042600
18987	0.042700
19107	0.042800
19169	0.042900
19208	0.043000
19213	0.043100
19244	0.043200
19258	0.043300
19298	0.043400
19361	0.043500
19392	0.043600
19400	0.043700
19403	0.043800
19481	0.043900
19482	0.044100
19483	0.044200
19520	0.044300
19607	0.044400
19626	0.044500
19677	0.044600
19726	0.044700
19753	0.044800
19781	0.044900
19839	0.045000
19844	0.045100
19884	0.045200
19888	0.045300
20004	0.045400
20018	0.045500
20046	0.045600
20107	0.045700
20133	0.045800
20183	0.045900
20231	0.046000
20261	0.046100
20381	0.046200
20390	0.046300
20459	0.046400
20552	0.046500
20561	0.046600
20727	0.046700
20853	0.046800
20883	0.046900
20928	0.047000
20949	0.047100
20990	0.047200
21026	0.047300
21119	0.047400
21156	0.047500
21195	0.047600
21226	0.047700
21332	0.047800
21364	0.047900
21401	0.048000
21452	0.048100
21501	0.048200
21508	0.048300
21511	0.048400
21574	0.048500
21594	0.048600
21639	0.048700
21641	0.048800
21663	0.048900
21679	0.049000
21726	0.049100
21738	0.049200
21740	0.049300
21768	0.049400
21817	0.049500
21856	0.049600
21882	0.049700
21966	0.049800
21998	0.049900
22024	0.050000
22170	0.050100
22224	0.050200
22246	0.050300
22284	0.050400
22298	0.050500
22314	0.050600
22393	0.050700
22400	0.050800
22402	0.050900
22418	0.051000
22640	0.051100
22678	0.051200
22747	0.051300
22772	0.051400
22798	0.051500
22799	0.051600
22813	0.051700
22828	0.051800
22894	0.051900
22991	0.052000
23087	0.052100
23097	0.052200
23140	0.052300
23215	0.052400
23216	0.052500
23232	0.052600
23237	0.052700
23241	0.052800
23259	0.052900
23389	0.053000
23411	0.053100
23594	0.053200
23626	0.053300
23741	0.053400
23777	0.053500
23831	0.053600
23920	0.053700
23972	0.053800
24002	0.053900
24051	0.054000
24099	0.054100
24109	0.054200
24126	0.054300
24164	0.054400
24192	0.054500
24225	0.054600
24327	0.054700
24417	0.054800
24433	0.054900
24438	0.055000
24449	0.055100
24676	0.055200
24791	0.055300
24827	0.055400
24834	0.055500
24914	0.055600
24939	0.055700
25009	0.055800
25421	0.055900
25576	0.056000
25659	0.056100
25740	0.056200
25838	0.056300
25900	0.056400
25914	0.056500
25926	0.056600
25984	0.056700
26001	0.056800
26044	0.056900
26101	0.057000
26292	0.057100
26322	0.057200
26335	0.057300
26340	0.057400
26378	0.057500
26554	0.057600
26556	0.057700
26759	0.057800
26914	0.057900
26939	0.058000
27209	0.058100
27218	0.058200
27255	0.058300
27282	0.058400
27343	0.058500
27476	0.058600
27511	0.058700
27628	0.058800
27677	0.058900
27723	0.059000
27913	0.059100
27924	0.059200
27954	0.059300
28360	0.059400
28420	0.059500
28432	0.059600
28539	0.059700
28661	0.059800
28707	0.059900
28729	0.060000
28759	0.060100
28809	0.060200
28873	0.060300
28991	0.060400
29048	0.060500
29125	0.060600
29272	0.060700
29419	0.060800
29655	0.060900
29682	0.061000
29736	0.061100
29779	0.061200
29842	0.061300
29882	0.061400
29918	0.061500
29983	0.061600
30064	0.061700
30274	0.061800
30292	0.061900
30293	0.062000
30307	0.062100
30501	0.062200
30511	0.062300
30529	0.062400
30623	0.062500
30723	0.062600
30764	0.062800
30766	0.062900
30787	0.063000
30835	0.063100
30896	0.063200
30917	0.063300
30951	0.063400
30971	0.063500
31099	0.063600
31124	0.063700
31291	0.063800
31332	0.063900
31336	0.064000
31459	0.064100
31517	0.064200
31582	0.064300
31609	0.064400
31705	0.064500
31843	0.064600
31858	0.064700
31864	0.064800
31879	0.064900
31884	0.065000
31902	0.065100
32017	0.065200
32065	0.065300
32088	0.065400
32244	0.065500
32268	0.065600
32280	0.065700
32417	0.065800
32458	0.065900
32472	0.066000
32535	0.066100
32580	0.066200
32588	0.066300
32685	0.066400
32755	0.066500
32796	0.066600
32915	0.066700
32941	0.066800
32988	0.066900
33210	0.067000
33305	0.067100
33333	0.067200
33364	0.067300
33435	0.067400
33454	0.067500
33498	0.067600
33542	0.067700
33585	0.067800
33595	0.067900
33609	0.068000
33649	0.068100
33751	0.068200
33773	0.068300
33808	0.068400
33867	0.068500
33913	0.068600
34100	0.068700
34138	0.068800
34147	0.068900
34272	0.069000
34345	0.069100
34413	0.069200
34427	0.069300
34451	0.069400
34471	0.069500
34611	0.069600
34680	0.069700
34691	0.069800
34695	0.069900
34716	0.070000
34742	0.070100
34763	0.070200
34953	0.070300
34997	0.070400
35022	0.070500
35150	0.070600
35170	0.070700
35184	0.070800
35224	0.070900
35256	0.071000
35307	0.071100
35315	0.071200
35399	0.071300
35410	0.071400
35420	0.071500
35515	0.071600
35682	0.071700
35703	0.071800
35719	0.071900
35724	0.072000
35814	0.072100
35823	0.072200
35845	0.072300
35998	0.072400
36090	0.072500
36190	0.072600
36247	0.072700
36353	0.072800
36424	0.072900
36519	0.073000
36538	0.073100
36559	0.073200
36615	0.073300
36617	0.073400
36724	0.073500
36745	0.073600
36760	0.073700
36834	0.073800
36997	0.073900
37015	0.074000
37019	0.074100
37100	0.074200
37185	0.074300
37219	0.074400
37568	0.074500
37628	0.074600
37643	0.074700
37644	0.074800
37645	0.074900
37675	0.075000
37682	0.075100
37708	0.075200
37733	0.075300
37925	0.075400
37984	0.075500
38050	0.075600
38051	0.075700
38058	0.075800
38071	0.075900
38075	0.076000
38076	0.076100
38078	0.076200
38153	0.076300
38224	0.076400
38244	0.076500
38321	0.076600
38348	0.076700
38394	0.076800
38500	0.076900
38504	0.077000
38649	0.077100
38654	0.077200
38678	0.077300
38724	0.077400
38854	0.077600
38971	0.077700
39148	0.077800
39280	0.077900
39284	0.078000
39322	0.078100
39339	0.078200
39349	0.078300
39398	0.078400
39427	0.078500
39440	0.078600
39443	0.078700
39458	0.078800
39552	0.078900
39595	0.079000
39710	0.079100
39716	0.079200
39992	0.079300
40032	0.079400
40174	0.079500
40204	0.079600
40236	0.079700
40240	0.079800
40258	0.079900
40354	0.080000
40794	0.080100
40805	0.080200
40812	0.080300
40830	0.080400
40979	0.080500
41018	0.080600
41024	0.080700
41191	0.080800
41275	0.080900
41299	0.081000
41340	0.081100
41352	0.081200
41452	0.081300
41653	0.081400
41678	0.081500
41836	0.081600
41838	0.081700
42016	0.081800
42145	0.081900
42208	0.082000
42396	0.082100
42401	0.082200
42447	0.082300
42473	0.082400
42529	0.082500
42768	0.082600
42778	0.082700
42829	0.082800
42915	0.082900
43055	0.083000
43066	0.083100
43119	0.083200
43342	0.083300
43379	0.083400
43422	0.083500
43458	0.083600
43714	0.083700
43922	0.083800
43989	0.083900
44124	0.084000
44145	0.084100
44197	0.084200
44218	0.084300
44219	0.084400
44276	0.084500
44366	0.084600
44370	0.084700
44528	0.084800
44575	0.084900
44697	0.085000
44713	0.085100
44722	0.085200
44799	0.085300
44811	0.085400
44909	0.085500
44927	0.085600
44970	0.085700
44989	0.085800
45091	0.085900
45135	0.086000
45204	0.086100
45281	0.086200
45449	0.086300
45813	0.086400
45834	0.086500
45853	0.086600
45929	0.086700
45945	0.086800
46002	0.086900
46048	0.087000
46050	0.087100
46311	0.087200
46315	0.087300
46567	0.087400
46626	0.087500
46647	0.087600
46703	0.087700
46797	0.087800
46826	0.087900
46881	0.088000
46887	0.088100
46913	0.088200
46941	0.088300
46944	0.088400
46962	0.088500
47031	0.088600
47107	0.088700
47207	0.088800
47241	0.088900
47292	0.089000
47297	0.089100
47308	0.089200
47316	0.089300
47326	0.089400
47367	0.089500
47369	0.089600
47613	0.089700
47666	0.089800
47773	0.089900
47778	0.090000
47892	0.090100
47958	0.090200
48223	0.090300
48300	0.090400
48327	0.090500
48352	0.090600
48409	0.090700
48463	0.090800
48559	0.090900
48584	0.091000
48647	0.091100
48728	0.091200
48794	0.091300
48872	0.091400
49084	0.091500
49134	0.091600
49141	0.091700
49159	0.091800
49273	0.091900
49324	0.092000
49398	0.092100
49484	0.092200
49523	0.092300
49540	0.092400
49591	0.092500
49612	0.092600
49733	0.092700
49750	0.092900
49786	0.093100
49822	0.093200
49856	0.093300
49865	0.093400
49950	0.093500
49988	0.093600
50002	0.093700
50017	0.093800
50288	0.093900
50365	0.094000
50430	0.094100
50485	0.094200
50663	0.094300
50671	0.094400
50714	0.094500
50787	0.094600
50840	0.094700
50897	0.094800
51007	0.094900
51035	0.095000
51054	0.095100
51156	0.095200
51193	0.095300
51213	0.095400
51302	0.095500
51418	0.095600
51529	0.095700
51567	0.095800
51705	0.095900
51812	0.096000
51979	0.096100
51993	0.096200
52001	0.096300
52064	0.096400
52194	0.096500
52272	0.096600
52502	0.096700
52611	0.096800
52688	0.096900
52692	0.097000
52738	0.097100
52869	0.097200
52871	0.097300
52883	0.097400
52890	0.097500
52894	0.097600
53092	0.097700
53171	0.097800
53269	0.097900
53344	0.098000
53382	0.098100
53489	0.098200
53560	0.098300
53591	0.098400
53704	0.098500
53842	0.098600
53860	0.098700
54048	0.098800
54083	0.098900
54104	0.099000
54124	0.099100
54193	0.099200
54205	0.099300
54207	0.099400
54281	0.099500
54338	0.099600
54409	0.099700
54439	0.099800
54442	0.099900
54492	0.100000
54699	0.100100
54709	0.100200
54731	0.100300
54783	0.100400
54834	0.100500
55032	0.100600
55063	0.100700
55237	0.100800
55368	0.100900
55415	0.101000
55450	0.101100
55544	0.101200
55579	0.101300
55627	0.101400
55685	0.101500
55709	0.101600
55991	0.101800
56038	0.101900
56052	0.102000
56094	0.102100
56110	0.102300
56148	0.102400
56205	0.102500
56392	0.102600
56418	0.102700
56585	0.102800
56645	0.102900
56741	0.103000
56839	0.103100
56969	0.103200
57495	0.103300
57547	0.103400
57550	0.103500
57576	0.103600
57586	0.103700
57671	0.103800
57732	0.103900
57783	0.104000
57866	0.104100
57872	0.104200
57890	0.104300
57952	0.104400
58069	0.104500
58110	0.104600
58202	0.104700
58266	0.104800
58335	0.104900
58347	0.105000
58359	0.105100
58482	0.105200
58566	0.105300
58573	0.105400
58772	0.105500
58817	0.105600
58891	0.105700
58926	0.105800
59106	0.105900
59144	0.106000
59219	0.106100
59248	0.106200
59299	0.106300
59388	0.106400
59449	0.106500
59480	0.106600
59625	0.106700
59731	0.106800
59815	0.106900
59931	0.107000
60170	0.107100
60232	0.107200
60238	0.107300
60320	0.107400
60581	0.107500
60659	0.107600
60718	0.107700
61056	0.107800
61186	0.107900
61213	0.108000
61256	0.108100
61283	0.108200
61368	0.108300
61401	0.108400
61597	0.108500
61752	0.108600
61833	0.108700
61931	0.108800
61934	0.108900
62145	0.109000
62198	0.109100
62218	0.109200
62224	0.109300
62252	0.109400
62337	0.109500
62362	0.109600
62365	0.109700
62370	0.109800
62472	0.109900
62603	0.110000
62647	0.110100
62656	0.110200
62782	0.110300
62794	0.110400
62804	0.110500
62911	0.110600
62978	0.110700
63022	0.110800
63037	0.111000
63283	0.111100
63344	0.111200
63534	0.111300
63558	0.111400
63635	0.111600
64018	0.111700
64034	0.111800
64059	0.111900
64125	0.112000
64141	0.112100
64165	0.112200
64550	0.112300
64561	0.112400
64740	0.112500
64748	0.112600
64780	0.112700
64844	0.112800
65024	0.112900
65054	0.113000
65120	0.113100
65170	0.113200
65224	0.113300
65290	0.113400
65305	0.113500
65374	0.113600
65583	0.113700
65604	0.113800
65644	0.113900
65647	0.114000
65807	0.114100
65816	0.114200
66102	0.114300
66142	0.114400
66269	0.114500
66353	0.114600
66405	0.114700
66525	0.114800
66528	0.114900
66599	0.115000
66623	0.115100
66625	0.115200
66741	0.115300
66866	0.115400
66914	0.115500
67024	0.115600
67034	0.115700
67047	0.115800
67152	0.115900
67182	0.116000
67352	0.116100
67402	0.116200
67496	0.116300
67509	0.116400
67532	0.116500
67850	0.116600
67862	0.116700
67944	0.116800
67948	0.116900
68013	0.117000
68295	0.117100
68303	0.117200
68446	0.117300
68475	0.117400
68487	0.117500
68498	0.117600
68559	0.117700
68621	0.117800
68810	0.117900
68878	0.118000
68929	0.118100
69158	0.118200
69290	0.118300
69295	0.118400
69446	0.118500
69479	0.118600
69537	0.118700
69545	0.118800
69654	0.118900
69707	0.119000
69747	0.119100
69814	0.119200
69918	0.119300
69963	0.119400
70098	0.119500
70294	0.119600
70313	0.119700
70367	0.119800
70380	0.119900
70393	0.120000
70401	0.120100
70407	0.120200
70426	0.120300
70436	0.120400
70600	0.120500
70643	0.120600
70687	0.120700
70784	0.120800
70816	0.120900
70840	0.121000
71002	0.121100
71013	0.121200
71204	0.121300
71362	0.121400
71446	0.121500
71646	0.121600
71716	0.121700
71803	0.121800
71882	0.121900
72076	0.122000
72138	0.122100
72187	0.122200
72206	0.122300
72209	0.122400
72249	0.122500
72372	0.122600
72390	0.122700
72439	0.122800
72460	0.122900
72502	0.123000
72547	0.123100
72565	0.123200
72575	0.123300
72638	0.123400
72739	0.123500
72787	0.123600
72847	0.123700
72853	0.123800
72855	0.123900
72898	0.124000
72905	0.124100
72941	0.124200
73227	0.124300
73229	0.124400
73331	0.124500
73396	0.124600
73408	0.124700
73419	0.124800
73793	0.124900
73882	0.125000
73980	0.125200
74179	0.125300
74383	0.125400
74540	0.125500
74600	0.125600
74624	0.125700
74691	0.125800
74956	0.125900
74980	0.126000
75086	0.126100
75218	0.126200
75254	0.126300
75545	0.126400
75555	0.126500
75575	0.126600
75676	0.126700
75752	0.126800
75772	0.126900
75845	0.127000
75886	0.127100
75887	0.127200
76365	0.127300
76393	0.127400
76530	0.127500
76576	0.127600
76693	0.127700
76730	0.127800
76736	0.127900
76743	0.128000
76932	0.128100
76998	0.128200
77109	0.128300
77137	0.128400
77166	0.128500
77193	0.128600
77361	0.128700
77372	0.128800
77403	0.128900
77424	0.129000
77435	0.129100
77664	0.129200
77727	0.129300
77852	0.129400
77863	0.129500
77943	0.129600
77973	0.129700
78071	0.129800
78095	0.129900
78235	0.130000
78317	0.130100
78394	0.130200
78413	0.130300
78447	0.130400
78571	0.130500
78611	0.130600
78653	0.130700
78663	0.130800
78789	0.130900
78792	0.131000
78810	0.131100
78951	0.131200
78991	0.131300
79151	0.131400
79244	0.131500
79259	0.131600
79267	0.131700
79321	0.131800
79329	0.131900
79348	0.132000
79395	0.132100
79500	0.132200
79570	0.132300
79590	0.132400
79635	0.132500
79703	0.132600
79825	0.132700
79878	0.132800
79995	0.132900
80020	0.133000
80026	0.133100
80037	0.133200
80042	0.133300
80211	0.133400
80327	0.133500
80344	0.133600
80375	0.133700
80427	0.133800
80432	0.133900
80474	0.134000
80648	0.134100
80848	0.134200
81269	0.134300
81334	0.134400
81463	0.134500
81528	0.134600
81617	0.134700
81619	0.134800
81712	0.134900
81724	0.135000
81749	0.135100
81793	0.135200
81912	0.135300
81940	0.135400
81967	0.135500
81970	0.135600
81991	0.135700
82030	0.135800
82152	0.135900
82188	0.136000
82400	0.136100
82612	0.136200
82713	0.136300
82777	0.136400
82881	0.136500
82971	0.136600
83130	0.136700
