key	frequency
0	0.112300
1	0.165600
2	0.205700
3	0.234400
4	0.258800
5	0.279800
6	0.292900
7	0.305500
8	0.316800
9	0.326500
10	0.333000
11	0.339900
12	0.346700
13	0.351900
14	0.355700
15	0.360500
16	0.365800
17	0.371400
18	0.374600
19	0.379200
20	0.383500
21	0.386800
22	0.390700
23	0.392900
24	0.395900
25	0.398700
26	0.400900
27	0.403300
28	0.406000
29	0.409300
30	0.410800
31	0.413000
32	0.416100
33	0.419100
34	0.420900
35	0.422700
36	0.424900
37	0.426900
38	0.429700
39	0.431800
40	0.434000
41	0.436100
42	0.437900
43	0.439900
44	0.441500
45	0.443300
46	0.444900
47	0.445800
48	0.447600
49	0.449200
50	0.450900
51	0.452100
52	0.453700
53	0.455300
54	0.457000
55	0.458100
56	0.460100
57	0.461900
58	0.463100
59	0.464000
60	0.464900
61	0.465600
62	0.466800
63	0.468000
64	0.469500
65	0.470300
66	0.471700
67	0.472800
68	0.473500
69	0.474700
70	0.475800
71	0.476400
72	0.477400
73	0.478000
74	0.478500
75	0.479700
76	0.480200
77	0.480700
78	0.481700
79	0.482200
80	0.483600
81	0.484300
82	0.484900
83	0.485800
84	0.486300
85	0.487600
86	0.488200
87	0.489300
88	0.491100
89	0.491700
90	0.492400
91	0.493200
92	0.493700
93	0.494600
94	0.495000
95	0.495800
96	0.496000
97	0.497000
98	0.497200
99	0.497700
100	0.498600
101	0.499300
102	0.500000
103	0.500800
104	0.501200
105	0.501800
106	0.502700
107	0.503600
108	0.504300
109	0.505000
110	0.505600
111	0.505700
112	0.506000
113	0.506300
114	0.506800
115	0.507400
116	0.507500
117	0.508000
118	0.508500
119	0.508800
120	0.509300
121	0.510100
122	0.510800
123	0.511300
124	0.511600
125	0.512500
126	0.513300
127	0.513700
128	0.514500
129	0.514700
130	0.515200
131	0.515600
132	0.516500
133	0.516800
134	0.517100
135	0.517700
136	0.518200
137	0.518600
138	0.519300
139	0.519900
140	0.520200
141	0.520400
142	0.520900
143	0.521500
144	0.521900
145	0.522200
146	0.522700
147	0.522900
148	0.523500
149	0.523900
151	0.524700
152	0.525100
153	0.525900
154	0.526200
155	0.526800
156	0.527500
157	0.528000
158	0.528400
159	0.528600
160	0.529000
161	0.529400
162	0.529700
163	0.530400
164	0.531300
165	0.531900
166	0.532200
167	0.532900
168	0.533200
169	0.533400
170	0.533800
171	0.534400
172	0.534800
173	0.535200
174	0.535300
175	0.535500
176	0.536100
177	0.536600
178	0.536800
179	0.537100
180	0.537500
181	0.538100
182	0.538300
184	0.538600
185	0.538800
186	0.539200
188	0.540000
189	0.540500
190	0.540700
191	0.540900
192	0.541500
193	0.541800
194	0.542000
196	0.542400
197	0.542600
198	0.543000
199	0.543500
200	0.543700
201	0.544200
202	0.544500
203	0.544700
204	0.545300
205	0.545600
206	0.545700
207	0.545800
208	0.546100
209	0.546300
210	0.546600
211	0.546700
212	0.547000
213	0.547400
214	0.547500
215	0.547600
216	0.547800
217	0.548000
218	0.548300
220	0.548700
221	0.548900
222	0.549100
223	0.549200
224	0.549800
226	0.550100
228	0.550200
229	0.550400
230	0.550500
231	0.551100
232	0.551300
233	0.551400
234	0.551500
236	0.551600
237	0.551900
238	0.552000
239	0.552200
240	0.552400
241	0.552500
242	0.552800
243	0.552900
244	0.553200
245	0.553300
246	0.553400
247	0.553500
248	0.553700
249	0.553900
250	0.554000
251	0.554500
252	0.554600
253	0.554900
254	0.555300
255	0.555500
256	0.555900
257	0.556200
258	0.556400
259	0.556600
260	0.556800
261	0.557200
262	0.557400
263	0.557500
264	0.557600
265	0.557800
266	0.558100
267	0.558300
268	0.558600
269	0.558700
270	0.559000
271	0.559200
272	0.559400
273	0.560000
274	0.560100
275	0.560400
276	0.560500
277	0.560800
278	0.561100
279	0.561300
281	0.561400
282	0.561600
283	0.561700
285	0.562000
286	0.562100
287	0.562400
288	0.562500
289	0.562700
290	0.563000
291	0.563300
292	0.563500
294	0.563700
295	0.564000
296	0.564200
297	0.564300
299	0.564400
300	0.564600
301	0.564900
303	0.565200
305	0.565300
306	0.565400
307	0.565500
308	0.565800
309	0.566000
310	0.566400
311	0.566600
313	0.566700
314	0.566800
315	0.567100
316	0.567200
317	0.567600
318	0.567800
319	0.568000
322	0.568100
324	0.568200
325	0.568400
327	0.568600
328	0.569200
329	0.569300
330	0.569400
331	0.569600
332	0.569900
333	0.570100
334	0.570200
335	0.570300
336	0.570600
337	0.570800
338	0.570900
339	0.571400
340	0.571600
341	0.571700
342	0.572000
343	0.572200
344	0.572400
346	0.572500
347	0.572700
348	0.573000
349	0.573100
350	0.573400
351	0.573600
352	0.573800
353	0.574100
354	0.574200
355	0.574600
356	0.574700
357	0.574800
358	0.574900
360	0.575100
362	0.575200
363	0.575400
364	0.575500
365	0.575900
366	0.576100
367	0.576400
368	0.576600
370	0.576900
371	0.577100
372	0.577300
373	0.577500
375	0.577700
377	0.577800
378	0.578100
379	0.578300
380	0.578600
381	0.578700
385	0.579000
386	0.579100
387	0.579300
388	0.579400
389	0.579500
390	0.579600
392	0.579700
394	0.580000
395	0.580300
397	0.580400
399	0.580600
400	0.580800
401	0.581000
402	0.581100
408	0.581300
409	0.581600
411	0.581700
412	0.582000
414	0.582200
415	0.582500
417	0.582800
418	0.582900
420	0.583000
421	0.583100
422	0.583300
423	0.583500
424	0.583700
425	0.583900
426	0.584000
427	0.584100
428	0.584200
429	0.584300
430	0.584400
431	0.584500
432	0.584900
433	0.585000
434	0.585100
436	0.585200
438	0.585300
439	0.585600
440	0.585800
441	0.586100
442	0.586300
443	0.586600
444	0.586700
445	0.586800
446	0.586900
447	0.587200
449	0.587400
450	0.587500
453	0.587600
456	0.587900
457	0.588100
458	0.588300
460	0.588500
462	0.588800
463	0.588900
464	0.589000
465	0.589100
466	0.589200
467	0.589300
468	0.589400
469	0.589500
470	0.589600
471	0.589900
472	0.590000
473	0.590300
475	0.590700
477	0.590900
478	0.591100
479	0.591600
480	0.591700
481	0.591800
482	0.592200
483	0.592300
484	0.592400
486	0.592600
487	0.592700
489	0.592800
490	0.593000
491	0.593100
493	0.593200
496	0.593300
497	0.593500
499	0.593600
500	0.593800
501	0.594100
502	0.594200
506	0.594400
507	0.594700
509	0.595000
511	0.595100
512	0.595400
513	0.595500
514	0.595700
515	0.595900
517	0.596000
518	0.596100
519	0.596200
520	0.596300
522	0.596400
523	0.596500
524	0.596800
529	0.596900
531	0.597000
532	0.597100
533	0.597200
534	0.597400
536	0.597600
537	0.597800
539	0.598000
540	0.598300
543	0.598400
545	0.598500
546	0.598600
549	0.598700
550	0.598800
552	0.599200
553	0.599300
554	0.599400
555	0.599600
556	0.599700
557	0.600000
558	0.600100
560	0.600400
563	0.600600
564	0.600900
566	0.601000
567	0.601200
569	0.601300
572	0.601400
573	0.601500
575	0.601700
579	0.602000
580	0.602100
581	0.602200
583	0.602300
584	0.602400
587	0.602600
588	0.602900
589	0.603100
590	0.603300
593	0.603700
594	0.603900
596	0.604000
598	0.604100
599	0.604200
601	0.604600
602	0.604800
605	0.605000
606	0.605100
607	0.605200
608	0.605300
609	0.605400
610	0.605500
611	0.605700
612	0.605800
615	0.605900
616	0.606000
619	0.606100
620	0.606300
621	0.606400
622	0.606500
624	0.606600
626	0.606700
627	0.606900
628	0.607000
629	0.607100
630	0.607200
631	0.607300
633	0.607400
634	0.607600
636	0.607800
637	0.607900
638	0.608000
639	0.608300
640	0.608600
645	0.608700
647	0.608800
651	0.608900
652	0.609000
654	0.609100
657	0.609200
658	0.609300
659	0.609400
662	0.609600
666	0.609700
668	0.609800
669	0.609900
671	0.610000
672	0.610200
673	0.610400
674	0.610500
675	0.610600
677	0.610800
678	0.610900
681	0.611000
684	0.611100
685	0.611200
686	0.611400
688	0.611600
689	0.611700
692	0.611900
693	0.612000
695	0.612100
696	0.612200
699	0.612300
702	0.612400
704	0.612500
707	0.612800
708	0.612900
709	0.613000
710	0.613100
711	0.613300
712	0.613400
714	0.613500
715	0.613600
716	0.613700
717	0.614000
719	0.614200
720	0.614300
721	0.614400
726	0.614500
728	0.614600
729	0.614700
732	0.614800
733	0.614900
735	0.615000
736	0.615100
739	0.615500
741	0.615600
742	0.615700
744	0.615800
749	0.615900
751	0.616000
752	0.616100
754	0.616200
762	0.616500
763	0.616600
764	0.616700
765	0.616900
766	0.617000
767	0.617200
769	0.617400
770	0.617500
771	0.617600
773	0.617700
775	0.617900
778	0.618100
779	0.618300
780	0.618400
785	0.618500
788	0.618600
791	0.618700
792	0.618800
793	0.618900
795	0.619000
803	0.619100
805	0.619400
806	0.619600
809	0.619700
810	0.619800
811	0.619900
812	0.620100
813	0.620200
815	0.620300
816	0.620400
817	0.620800
819	0.620900
820	0.621000
821	0.621100
823	0.621200
825	0.621300
828	0.621400
831	0.621500
832	0.621600
834	0.621700
836	0.621800
838	0.621900
839	0.622100
841	0.622200
843	0.622300
844	0.622400
845	0.622500
852	0.622600
855	0.622800
857	0.622900
858	0.623000
859	0.623100
860	0.623400
869	0.623500
872	0.623800
876	0.624000
877	0.624100
880	0.624200
881	0.624300
884	0.624400
887	0.624500
888	0.624600
889	0.624700
891	0.624800
895	0.624900
897	0.625000
899	0.625100
900	0.625200
902	0.625300
905	0.625400
906	0.625700
908	0.625900
910	0.626000
912	0.626100
914	0.626300
915	0.626400
916	0.626500
917	0.626600
918	0.626700
919	0.626800
921	0.626900
925	0.627000
928	0.627100
929	0.627200
934	0.627300
935	0.627400
937	0.627500
938	0.627700
944	0.627800
945	0.628100
947	0.628200
948	0.628300
951	0.628400
952	0.628500
955	0.628600
957	0.628700
958	0.628800
959	0.628900
960	0.629000
963	0.629200
965	0.629300
967	0.629400
968	0.629600
971	0.629800
972	0.630000
973	0.630100
975	0.630200
980	0.630300
984	0.630500
985	0.630600
986	0.630700
987	0.630800
988	0.630900
993	0.631000
994	0.631100
996	0.631200
1001	0.631400
1005	0.631700
1006	0.631800
1007	0.631900
1008	0.632000
1012	0.632100
1017	0.632400
1018	0.632500
1023	0.632600
1025	0.632700
1026	0.632800
1027	0.632900
1030	0.633000
1031	0.633100
1034	0.633200
1035	0.633300
1036	0.633400
1037	0.633500
1040	0.633600
1042	0.633700
1045	0.633800
1046	0.633900
1048	0.634000
1049	0.634200
1054	0.634300
1055	0.634400
1056	0.634500
1057	0.634600
1060	0.634700
1061	0.634800
1062	0.634900
1063	0.635100
1066	0.635300
1068	0.635500
1072	0.635600
1073	0.635700
1075	0.635800
1076	0.636000
1084	0.636100
1085	0.636200
1089	0.636300
1090	0.636400
1093	0.636600
1095	0.636700
1099	0.636800
1101	0.637000
1102	0.637100
1103	0.637200
1107	0.637300
1108	0.637400
1113	0.637500
1116	0.637600
1121	0.637700
1122	0.637900
1124	0.638000
1126	0.638100
1129	0.638200
1131	0.638300
1132	0.638400
1138	0.638500
1141	0.638600
1143	0.638800
1146	0.638900
1149	0.639000
1150	0.639100
1155	0.639300
1162	0.639400
1164	0.639500
1169	0.639600
1171	0.639700
1178	0.639800
1179	0.639900
1183	0.640000
1185	0.640100
1186	0.640200
1187	0.640400
1188	0.640500
1189	0.640600
1191	0.640700
1192	0.640800
1195	0.640900
1196	0.641000
1199	0.641300
1206	0.641400
1208	0.641500
1213	0.641700
1214	0.641800
1216	0.641900
1217	0.642000
1219	0.642200
1222	0.642400
1224	0.642500
1235	0.642600
1237	0.642800
1240	0.643100
1243	0.643200
1245	0.643300
1248	0.643400
1255	0.643500
1256	0.643700
1257	0.643800
1260	0.643900
1264	0.644000
1266	0.644100
1267	0.644200
1270	0.644300
1274	0.644400
1281	0.644500
1285	0.644700
1288	0.644800
1292	0.645100
1294	0.645200
1296	0.645300
1298	0.645400
1299	0.645600
1300	0.645700
1305	0.645800
1307	0.645900
1311	0.646000
1316	0.646100
1317	0.646200
1320	0.646300
1323	0.646400
1325	0.646500
1329	0.646600
1331	0.646700
1333	0.646800
1334	0.646900
1340	0.647000
1341	0.647100
1344	0.647300
1348	0.647400
1352	0.647500
1360	0.647600
1361	0.647700
1368	0.647800
1373	0.647900
1376	0.648100
1377	0.648200
1382	0.648400
1384	0.648500
1385	0.648700
1387	0.648800
1391	0.648900
1393	0.649000
1394	0.649200
1399	0.649300
1401	0.649500
1407	0.649600
1410	0.649700
1414	0.649900
1415	0.650100
1416	0.650200
1425	0.650300
1429	0.650400
1430	0.650500
1431	0.650600
1432	0.650700
1439	0.650800
1446	0.650900
1450	0.651000
1452	0.651100
1456	0.651300
1458	0.651400
1459	0.651500
1460	0.651600
1461	0.651700
1467	0.651800
1472	0.652000
1473	0.652100
1474	0.652200
1476	0.652300
1482	0.652500
1484	0.652600
1486	0.652700
1490	0.652800
1492	0.652900
1494	0.653000
1495	0.653100
1499	0.653200
1505	0.653300
1513	0.653400
1516	0.653500
1521	0.653700
1522	0.653800
1524	0.653900
1527	0.654000
1532	0.654200
1535	0.654400
1537	0.654500
1540	0.654600
1543	0.654700
1547	0.654800
1550	0.654900
1560	0.655100
1570	0.655200
1573	0.655300
1576	0.655400
1578	0.655600
1581	0.655700
1584	0.655800
1586	0.655900
1587	0.656000
1593	0.656200
1599	0.656400
1600	0.656500
1604	0.656600
1614	0.656700
1615	0.656800
1616	0.656900
1617	0.657100
1623	0.657200
1627	0.657300
1637	0.657500
1638	0.657600
1639	0.657700
1640	0.657800
1642	0.657900
1648	0.658000
1651	0.658100
1654	0.658200
1658	0.658300
1661	0.658400
1665	0.658500
1666	0.658600
1674	0.658700
1683	0.658800
1685	0.659000
1690	0.659200
1691	0.659400
1695	0.659500
1697	0.659700
1698	0.659800
1700	0.659900
1701	0.660000
1707	0.660200
1708	0.660300
1710	0.660500
1715	0.660600
1720	0.660700
1727	0.660800
1731	0.660900
1734	0.661100
1738	0.661200
1748	0.661300
1753	0.661400
1757	0.661500
1769	0.661600
1770	0.661800
1772	0.661900
1777	0.662000
1778	0.662100
1780	0.662200
1781	0.662300
1785	0.662400
1790	0.662500
1791	0.662600
1798	0.662700
1808	0.662800
1812	0.662900
1813	0.663000
1817	0.663100
1820	0.663300
1827	0.663400
1832	0.663500
1836	0.663700
1840	0.663800
1847	0.663900
1848	0.664000
1851	0.664100
1854	0.664200
1860	0.664300
1861	0.664400
1862	0.664500
1865	0.664600
1880	0.664700
1882	0.664800
1884	0.664900
1885	0.665000
1886	0.665100
1890	0.665200
1895	0.665300
1898	0.665400
1899	0.665500
1910	0.665600
1913	0.665700
1914	0.665800
1926	0.665900
1928	0.666000
1935	0.666100
1936	0.666200
1938	0.666300
1940	0.666400
1942	0.666500
1946	0.666600
1947	0.666800
1949	0.666900
1955	0.667000
1959	0.667100
1961	0.667200
1968	0.667300
1971	0.667400
1978	0.667600
1991	0.667800
1996	0.667900
1998	0.668000
2001	0.668100
2007	0.668200
2012	0.668400
2017	0.668600
2019	0.668700
2029	0.668800
2032	0.668900
2034	0.669000
2035	0.669100
2038	0.669200
2043	0.669300
2053	0.669400
2055	0.669600
2058	0.669700
2066	0.669800
2068	0.669900
2069	0.670000
2075	0.670100
2077	0.670200
2079	0.670300
2080	0.670400
2090	0.670600
2105	0.670700
2109	0.670800
2114	0.670900
2119	0.671100
2121	0.671200
2124	0.671300
2126	0.671400
2132	0.671600
2134	0.671700
2135	0.671800
2139	0.671900
2140	0.672000
2153	0.672100
2156	0.672200
2157	0.672300
2163	0.672400
2164	0.672600
2172	0.672700
2183	0.672800
2188	0.672900
2199	0.673000
2201	0.673100
2219	0.673200
2221	0.673300
2227	0.673400
2228	0.673500
2234	0.673600
2252	0.673700
2259	0.673800
2260	0.673900
2261	0.674000
2275	0.674100
2276	0.674200
2299	0.674300
2302	0.674400
2319	0.674500
2320	0.674700
2321	0.674800
2340	0.674900
2343	0.675000
2348	0.675100
2349	0.675200
2355	0.675300
2364	0.675400
2372	0.675500
2375	0.675600
2381	0.675700
2382	0.675800
2393	0.675900
2397	0.676000
2398	0.676100
2399	0.676200
2401	0.676300
2402	0.676400
2407	0.676500
2413	0.676600
2415	0.676700
2416	0.676800
2424	0.676900
2429	0.677000
2435	0.677100
2443	0.677200
2445	0.677300
2450	0.677500
2457	0.677600
2467	0.677700
2470	0.677800
2472	0.677900
2476	0.678000
2478	0.678100
2485	0.678200
2493	0.678300
2494	0.678500
2495	0.678600
2499	0.678700
2515	0.678800
2518	0.678900
2526	0.679000
2532	0.679100
2543	0.679200
2554	0.679300
2563	0.679400
2580	0.679500
2583	0.679600
2584	0.679700
2613	0.679800
2626	0.679900
2634	0.680000
2637	0.680100
2640	0.680200
2641	0.680300
2642	0.680400
2646	0.680500
2647	0.680600
2648	0.680700
2651	0.680800
2652	0.681000
2653	0.681100
2660	0.681200
2674	0.681300
2691	0.681400
2692	0.681600
2695	0.681700
2702	0.681800
2704	0.681900
2715	0.682000
2716	0.682100
2718	0.682200
2723	0.682300
2730	0.682400
2734	0.682500
2736	0.682600
2740	0.682800
2741	0.682900
2753	0.683000
2763	0.683100
2765	0.683200
2778	0.683300
2779	0.683400
2784	0.683500
2787	0.683600
2789	0.683700
2792	0.683800
2797	0.684000
2805	0.684100
2823	0.684200
2826	0.684300
2838	0.684400
2843	0.684500
2851	0.684600
2854	0.684700
2856	0.684800
2859	0.684900
2863	0.685000
2868	0.685100
2875	0.685200
2883	0.685300
2884	0.685400
2885	0.685500
2889	0.685600
2899	0.685700
2902	0.685800
2903	0.685900
2905	0.686000
2910	0.686100
2916	0.686300
2930	0.686400
2931	0.686500
2937	0.686600
2947	0.686700
2955	0.686800
2965	0.686900
2969	0.687000
2971	0.687100
2976	0.687200
2977	0.687300
2985	0.687400
2997	0.687500
3007	0.687600
3018	0.687800
3025	0.687900
3052	0.688000
3056	0.688100
3058	0.688200
3064	0.688300
3074	0.688500
3075	0.688600
3081	0.688700
3082	0.688800
3087	0.688900
3100	0.689000
3112	0.689100
3113	0.689200
3124	0.689400
3127	0.689500
3129	0.689600
3136	0.689700
3154	0.689800
3167	0.689900
3171	0.690000
3177	0.690100
3181	0.690200
3182	0.690300
3184	0.690400
3197	0.690500
3199	0.690600
3205	0.690700
3230	0.690900
3242	0.691000
3243	0.691100
3248	0.691200
3262	0.691300
3278	0.691400
3280	0.691500
3295	0.691600
3296	0.691700
3305	0.691800
3314	0.691900
3318	0.692000
3330	0.692200
3333	0.692300
3338	0.692400
3339	0.692500
3345	0.692600
3348	0.692700
3351	0.692800
3356	0.692900
3370	0.693000
3374	0.693100
3376	0.693200
3381	0.693300
3382	0.693400
3404	0.693500
3411	0.693600
3420	0.693700
3426	0.693800
3431	0.693900
3467	0.694000
3472	0.694100
3473	0.694200
3478	0.694300
3498	0.694400
3504	0.694500
3522	0.694700
3531	0.694800
3535	0.694900
3537	0.695000
3553	0.695100
3558	0.695200
3560	0.695300
3576	0.695400
3587	0.695500
3588	0.695600
3589	0.695700
3601	0.695800
3608	0.695900
3614	0.696000
3619	0.696100
3624	0.696200
3641	0.696300
3643	0.696400
3644	0.696500
3651	0.696600
3655	0.696700
3656	0.696800
3667	0.696900
3681	0.697000
3698	0.697100
3709	0.697200
3732	0.697300
3736	0.697400
3740	0.697500
3741	0.697600
3746	0.697700
3749	0.697800
3757	0.697900
3780	0.698000
3781	0.698100
3784	0.698200
3785	0.698300
3810	0.698400
3830	0.698500
3845	0.698600
3876	0.698700
3891	0.698800
3915	0.698900
3932	0.699000
3935	0.699100
3941	0.699200
3942	0.699300
3950	0.699400
3952	0.699500
3954	0.699600
3991	0.699700
3998	0.699800
4002	0.699900
4024	0.700000
4039	0.700200
4060	0.700400
4061	0.700500
4066	0.700600
4100	0.700700
4103	0.700800
4104	0.700900
4121	0.701000
4142	0.701100
4149	0.701200
4150	0.701300
4151	0.701400
4175	0.701500
4191	0.701600
4201	0.701700
4206	0.701800
4217	0.701900
4225	0.702000
4237	0.702100
4241	0.702200
4255	0.702300
4277	0.702400
4280	0.702500
4283	0.702600
4286	0.702700
4298	0.702800
4301	0.702900
4302	0.703000
4310	0.703100
4315	0.703200
4331	0.703300
4338	0.703400
4346	0.703500
4347	0.703600
4352	0.703700
4353	0.703800
4371	0.703900
4380	0.704000
4394	0.704100
4405	0.704200
4409	0.704400
4411	0.704600
4415	0.704700
4424	0.704800
4425	0.704900
4428	0.705000
4433	0.705100
4440	0.705200
4442	0.705300
4446	0.705400
4460	0.705500
4466	0.705600
4477	0.705700
4494	0.705800
4499	0.705900
4510	0.706000
4512	0.706100
4537	0.706300
4545	0.706500
4561	0.706600
4565	0.706700
4570	0.706800
4583	0.706900
4585	0.707100
4588	0.707200
4618	0.707300
4621	0.707400
4639	0.707500
4644	0.707600
4652	0.707700
4677	0.707800
4683	0.707900
4685	0.708000
4686	0.708100
4700	0.708200
4703	0.708300
4717	0.708400
4719	0.708500
4730	0.708600
4747	0.708700
4759	0.708800
4767	0.708900
4770	0.709000
4781	0.709100
4786	0.709200
4792	0.709300
4798	0.709400
4815	0.709500
4817	0.709600
4841	0.709700
4845	0.709800
4870	0.709900
4872	0.710000
4873	0.710100
4883	0.710200
4887	0.710300
4904	0.710400
4909	0.710500
4933	0.710600
4939	0.710700
4948	0.710800
4968	0.710900
4972	0.711000
4983	0.711100
4986	0.711200
5016	0.711300
5017	0.711400
5021	0.711500
5022	0.711600
5082	0.711700
5090	0.711800
5091	0.711900
5092	0.712000
5099	0.712100
5107	0.712200
5119	0.712300
5165	0.712400
5167	0.712500
5172	0.712600
5174	0.712700
5175	0.712800
5187	0.712900
5190	0.713000
5198	0.713100
5202	0.713200
5212	0.713300
5219	0.713400
5233	0.713500
5239	0.713600
5252	0.713700
5273	0.713800
5284	0.713900
5287	0.714000
5315	0.714100
5325	0.714200
5344	0.714300
5349	0.714400
5351	0.714500
5360	0.714600
5367	0.714800
5382	0.714900
5399	0.715000
5401	0.715100
5417	0.715200
5423	0.715300
5429	0.715400
5450	0.715500
5452	0.715600
5462	0.715700
5468	0.715900
5474	0.716000
5493	0.716100
5503	0.716200
5522	0.716300
5533	0.716400
5538	0.716500
5547	0.716600
5566	0.716700
5586	0.716800
5591	0.716900
5601	0.717000
5605	0.717100
5644	0.717300
5671	0.717400
5672	0.717500
5697	0.717600
5711	0.717700
5724	0.717800
5726	0.717900
5728	0.718000
5732	0.718100
