key	frequency
0	0.192700
1	0.276000
2	0.334500
3	0.372800
4	0.401400
5	0.422400
6	0.442100
7	0.457100
8	0.472900
9	0.485300
10	0.495700
11	0.506500
12	0.515800
13	0.523900
14	0.530700
15	0.536800
16	0.543400
17	0.548900
18	0.553000
19	0.559400
20	0.564100
21	0.568500
22	0.574200
23	0.578200
24	0.582200
25	0.586300
26	0.591300
27	0.593600
28	0.596800
29	0.600500
30	0.603600
31	0.607100
32	0.610900
33	0.612900
34	0.615800
35	0.618800
36	0.621400
37	0.623300
38	0.626500
39	0.628000
40	0.630100
41	0.631900
42	0.634300
43	0.636200
44	0.637700
45	0.638700
46	0.640500
47	0.642000
48	0.643500
49	0.645600
50	0.647300
51	0.648900
52	0.650400
53	0.651200
54	0.652600
55	0.654000
56	0.655900
57	0.657400
58	0.658700
59	0.660800
60	0.661400
61	0.662900
62	0.664500
63	0.665600
64	0.666700
65	0.668000
66	0.669300
67	0.670100
68	0.671600
69	0.672100
70	0.672800
71	0.674200
72	0.675100
73	0.676200
74	0.676700
75	0.677500
76	0.678700
77	0.679300
78	0.679900
79	0.681000
80	0.681400
81	0.682800
82	0.683800
83	0.684500
84	0.684900
85	0.685400
86	0.686500
87	0.687700
88	0.688500
89	0.689100
90	0.689600
91	0.690300
92	0.691200
93	0.691900
94	0.692700
95	0.693400
96	0.694000
97	0.694800
98	0.695500
99	0.696200
100	0.697200
101	0.697900
102	0.698700
103	0.699300
104	0.699500
105	0.700200
106	0.701000
107	0.701700
108	0.702200
109	0.702600
110	0.703000
111	0.703300
112	0.704100
113	0.704600
114	0.705200
115	0.705900
116	0.706600
117	0.707300
118	0.707700
119	0.708300
120	0.708600
121	0.708700
122	0.709100
123	0.709600
124	0.710100
125	0.710600
126	0.711200
127	0.711600
128	0.712400
129	0.713100
130	0.713600
131	0.714000
132	0.714500
133	0.715200
134	0.715700
135	0.715900
136	0.716500
137	0.716700
138	0.717200
139	0.717800
140	0.718500
141	0.719000
142	0.719600
143	0.719800
144	0.720900
145	0.721900
146	0.722300
147	0.722800
148	0.723300
149	0.723600
150	0.723700
151	0.724300
152	0.724600
153	0.725000
154	0.725100
155	0.725200
156	0.725700
157	0.726000
158	0.726500
159	0.726900
160	0.727100
161	0.727200
162	0.727500
163	0.728000
164	0.728500
165	0.728900
166	0.729100
167	0.729900
168	0.730400
169	0.731000
170	0.731500
171	0.731800
172	0.732100
173	0.732500
174	0.732900
175	0.733200
176	0.733500
177	0.733700
178	0.734100
179	0.734400
180	0.734700
181	0.735200
182	0.735400
183	0.735700
184	0.736100
185	0.736300
187	0.736900
188	0.737000
189	0.737200
190	0.737500
191	0.737900
192	0.738300
193	0.738700
194	0.739000
195	0.739400
196	0.739700
197	0.740000
198	0.740500
199	0.740900
200	0.741000
201	0.741300
202	0.741400
203	0.741700
204	0.741900
205	0.742100
206	0.742300
207	0.742600
208	0.742800
211	0.743200
212	0.743600
213	0.744100
214	0.744200
216	0.744600
217	0.744800
218	0.745200
219	0.745300
220	0.745500
221	0.745900
222	0.746400
223	0.746500
224	0.747100
225	0.747400
226	0.747600
227	0.747900
228	0.748100
229	0.748500
230	0.749000
231	0.749100
232	0.749500
233	0.749900
234	0.750000
235	0.750200
236	0.750600
238	0.750800
239	0.751100
240	0.751300
241	0.751600
242	0.752100
243	0.752300
244	0.752400
245	0.752600
247	0.752700
248	0.753100
249	0.753300
250	0.753900
252	0.754000
253	0.754100
254	0.754300
255	0.754700
256	0.755100
257	0.755400
258	0.755700
260	0.755900
261	0.756000
262	0.756100
263	0.756300
264	0.756500
265	0.757000
266	0.757200
267	0.757400
268	0.757500
269	0.757600
270	0.757800
271	0.758100
273	0.758700
274	0.759000
275	0.759300
276	0.759400
277	0.759800
278	0.760200
280	0.760500
281	0.760700
282	0.760800
283	0.761000
284	0.761500
286	0.761700
287	0.761800
288	0.761900
289	0.762100
290	0.762500
291	0.762800
292	0.762900
293	0.763100
294	0.763300
295	0.763400
296	0.763700
297	0.764100
299	0.764400
300	0.764600
301	0.765000
302	0.765400
305	0.765700
306	0.765800
307	0.766500
308	0.766700
309	0.766900
310	0.767100
312	0.767300
313	0.767500
314	0.767900
315	0.768000
317	0.768200
319	0.768400
320	0.768700
322	0.768900
323	0.769300
326	0.769500
327	0.769700
328	0.769800
329	0.770000
330	0.770300
331	0.770500
332	0.770700
333	0.770900
334	0.771000
336	0.771300
337	0.771400
338	0.771600
339	0.771900
340	0.772000
341	0.772100
342	0.772500
344	0.772700
345	0.772800
346	0.773100
347	0.773300
348	0.773600
349	0.773700
351	0.773900
352	0.774400
353	0.774500
355	0.774800
356	0.775200
357	0.775600
360	0.775800
362	0.776100
363	0.776300
364	0.776500
365	0.776600
366	0.776700
367	0.776800
368	0.776900
370	0.777100
371	0.777300
372	0.777500
373	0.777600
374	0.777800
375	0.777900
376	0.778000
379	0.778200
380	0.778400
381	0.778600
382	0.778800
383	0.779100
384	0.779200
386	0.779400
387	0.779500
388	0.779600
390	0.779700
391	0.779900
392	0.780100
393	0.780400
394	0.780500
395	0.780600
396	0.780700
397	0.780800
398	0.781100
399	0.781400
400	0.781500
401	0.781900
402	0.782000
403	0.782200
406	0.782300
407	0.782500
408	0.782800
409	0.783000
410	0.783100
411	0.783300
414	0.783400
415	0.783600
416	0.783800
417	0.784000
418	0.784200
419	0.784400
420	0.784500
421	0.784700
422	0.784800
425	0.784900
426	0.785000
427	0.785200
428	0.785500
429	0.785600
430	0.785900
432	0.786100
433	0.786400
435	0.786500
436	0.786600
437	0.786800
440	0.786900
441	0.787000
442	0.787200
444	0.787300
445	0.787600
446	0.787800
447	0.787900
448	0.788200
449	0.788400
452	0.788500
454	0.788600
455	0.788700
456	0.788800
458	0.789100
460	0.789200
461	0.789500
462	0.789700
463	0.789900
464	0.790400
467	0.790500
468	0.790600
470	0.790700
471	0.790800
473	0.791000
475	0.791100
476	0.791200
478	0.791300
479	0.791500
480	0.791600
481	0.791800
487	0.791900
488	0.792000
492	0.792100
493	0.792300
497	0.792400
498	0.792600
499	0.792800
500	0.792900
501	0.793000
502	0.793300
504	0.793500
509	0.793600
512	0.793800
515	0.794200
517	0.794400
518	0.794600
519	0.794800
521	0.794900
525	0.795100
526	0.795200
527	0.795300
530	0.795400
532	0.795500
533	0.795600
534	0.795700
535	0.795800
536	0.795900
537	0.796300
540	0.796600
541	0.796800
544	0.796900
545	0.797000
546	0.797100
551	0.797200
554	0.797500
555	0.797600
557	0.797800
558	0.798000
559	0.798200
560	0.798300
562	0.798400
563	0.798500
565	0.798800
566	0.798900
567	0.799000
568	0.799100
571	0.799400
572	0.799700
576	0.799800
577	0.799900
579	0.800000
581	0.800200
582	0.800300
584	0.800500
586	0.800700
587	0.800900
588	0.801000
589	0.801100
591	0.801200
592	0.801300
593	0.801400
594	0.801500
595	0.801600
597	0.801700
599	0.801800
606	0.802000
607	0.802100
610	0.802200
612	0.802400
613	0.802500
614	0.802600
616	0.802700
617	0.803100
619	0.803300
620	0.803400
624	0.803500
625	0.803600
628	0.803700
630	0.803800
631	0.803900
633	0.804000
636	0.804100
637	0.804200
638	0.804300
639	0.804500
641	0.804800
644	0.805000
645	0.805100
647	0.805300
649	0.805400
650	0.805500
652	0.805600
653	0.805700
654	0.805800
655	0.806100
656	0.806300
658	0.806400
660	0.806500
662	0.806600
663	0.806700
664	0.806800
665	0.806900
670	0.807100
671	0.807200
672	0.807400
673	0.807500
676	0.807600
678	0.807700
679	0.807800
680	0.807900
686	0.808000
691	0.808100
693	0.808300
696	0.808400
698	0.808500
700	0.808600
702	0.808700
703	0.809000
704	0.809200
705	0.809400
709	0.809500
710	0.809600
711	0.809700
712	0.810000
713	0.810200
715	0.810300
716	0.810500
717	0.810700
722	0.810800
724	0.811000
725	0.811100
726	0.811200
727	0.811300
728	0.811400
729	0.811500
730	0.811700
733	0.811800
734	0.811900
735	0.812000
736	0.812200
739	0.812400
740	0.812500
746	0.812600
748	0.812800
750	0.812900
751	0.813000
753	0.813100
754	0.813300
756	0.813400
757	0.813500
760	0.813600
761	0.813700
764	0.813900
766	0.814100
771	0.814200
772	0.814300
777	0.814500
778	0.814600
779	0.814700
780	0.814900
782	0.815000
784	0.815100
785	0.815200
788	0.815300
789	0.815500
791	0.815600
792	0.815700
793	0.815800
796	0.816000
802	0.816100
803	0.816200
804	0.816500
805	0.816700
807	0.816800
811	0.816900
813	0.817000
814	0.817200
815	0.817300
819	0.817400
820	0.817600
824	0.817700
829	0.817800
833	0.817900
834	0.818100
836	0.818200
839	0.818300
842	0.818400
843	0.818600
845	0.818700
853	0.818900
857	0.819000
861	0.819100
862	0.819200
864	0.819300
868	0.819400
870	0.819500
871	0.819600
873	0.819700
874	0.819800
875	0.819900
877	0.820000
885	0.820100
887	0.820200
888	0.820300
889	0.820500
890	0.820600
891	0.820700
893	0.820800
896	0.821000
897	0.821100
899	0.821300
900	0.821400
904	0.821500
905	0.821600
911	0.821700
914	0.821800
916	0.822000
919	0.822200
920	0.822300
921	0.822400
923	0.822500
924	0.822700
925	0.823000
927	0.823200
936	0.823400
937	0.823500
938	0.823600
940	0.823700
949	0.823800
951	0.823900
952	0.824000
956	0.824100
957	0.824200
958	0.824300
964	0.824500
965	0.824600
966	0.824700
967	0.824800
971	0.824900
972	0.825000
973	0.825100
976	0.825400
979	0.825600
983	0.825800
985	0.825900
995	0.826000
998	0.826100
1010	0.826200
1014	0.826300
1015	0.826400
1017	0.826500
1018	0.826700
1024	0.826900
1025	0.827000
1029	0.827100
1031	0.827200
1037	0.827300
1039	0.827400
1041	0.827500
1045	0.827600
1047	0.827700
1050	0.828000
1055	0.828200
1058	0.828300
1059	0.828400
1064	0.828500
1069	0.828600
1070	0.828700
1074	0.828800
1080	0.828900
1081	0.829000
1082	0.829100
1086	0.829200
1087	0.829300
1088	0.829400
1089	0.829600
1090	0.829700
1095	0.829800
1096	0.830100
1100	0.830300
1104	0.830400
1105	0.830500
1107	0.830600
1109	0.830700
1115	0.830800
1117	0.830900
1118	0.831000
1121	0.831100
1124	0.831300
1126	0.831400
1128	0.831600
1129	0.831700
1130	0.831800
1131	0.831900
1134	0.832000
1135	0.832100
1137	0.832200
1138	0.832300
1142	0.832400
1145	0.832600
1149	0.832800
1150	0.832900
1152	0.833100
1154	0.833200
1161	0.833300
1162	0.833500
1166	0.833600
1170	0.833700
1171	0.833800
1173	0.833900
1174	0.834000
1176	0.834100
1181	0.834200
1191	0.834300
1192	0.834400
1194	0.834500
1198	0.834600
1201	0.834800
1202	0.834900
1204	0.835000
1207	0.835100
1217	0.835200
1218	0.835300
1219	0.835500
1223	0.835600
1225	0.835700
1230	0.835800
1237	0.835900
1246	0.836000
1248	0.836100
1249	0.836200
1252	0.836300
1257	0.836400
1258	0.836500
1259	0.836600
1271	0.836700
1272	0.836800
1279	0.836900
1280	0.837100
1283	0.837200
1284	0.837300
1286	0.837400
1287	0.837500
1289	0.837700
1295	0.837800
1298	0.838000
1299	0.838100
1305	0.838200
1306	0.838300
1307	0.838400
1308	0.838600
1310	0.838700
1312	0.838800
1313	0.838900
1315	0.839000
1323	0.839100
1324	0.839200
1326	0.839300
1331	0.839400
1334	0.839500
1337	0.839600
1338	0.839700
1340	0.839800
1342	0.839900
1343	0.840000
1345	0.840100
1349	0.840200
1354	0.840400
1361	0.840500
1365	0.840600
1367	0.840700
1369	0.840900
1375	0.841000
1376	0.841100
1381	0.841200
1383	0.841500
1385	0.841600
1387	0.841700
1391	0.841800
1396	0.841900
1398	0.842000
1399	0.842100
1400	0.842300
1416	0.842400
1417	0.842500
1418	0.842600
1420	0.842700
1422	0.842900
1423	0.843000
1425	0.843100
1429	0.843200
1431	0.843300
1434	0.843400
1436	0.843500
1442	0.843700
1446	0.843800
1459	0.843900
1464	0.844100
1465	0.844300
1468	0.844400
1479	0.844600
1482	0.844700
1485	0.844800
1495	0.844900
1496	0.845000
1513	0.845100
1516	0.845200
1527	0.845300
1528	0.845400
1530	0.845500
1531	0.845600
1532	0.845700
1534	0.845900
1536	0.846000
1539	0.846100
1540	0.846200
1545	0.846300
1549	0.846400
1551	0.846500
1563	0.846600
1565	0.846800
1571	0.846900
1577	0.847000
1581	0.847100
1582	0.847200
1583	0.847300
1584	0.847500
1586	0.847600
1589	0.847700
1590	0.848000
1592	0.848100
1594	0.848200
1597	0.848300
1598	0.848400
1611	0.848500
1614	0.848700
1631	0.848800
1634	0.848900
1638	0.849000
1640	0.849100
1641	0.849200
1642	0.849300
1644	0.849400
1648	0.849500
1649	0.849600
1652	0.849700
1655	0.849800
1658	0.849900
1659	0.850200
1664	0.850300
1666	0.850400
1678	0.850500
1688	0.850800
1694	0.850900
1707	0.851000
1708	0.851100
1710	0.851200
1711	0.851300
1717	0.851400
1721	0.851500
1722	0.851600
1725	0.851700
1729	0.851900
1730	0.852000
1731	0.852100
1734	0.852200
1738	0.852400
1745	0.852500
1753	0.852600
1755	0.852700
1763	0.852800
1764	0.852900
1771	0.853100
1775	0.853200
1783	0.853300
1789	0.853400
1790	0.853500
1798	0.853600
1808	0.853700
1810	0.853900
1811	0.854000
1813	0.854100
1818	0.854200
1823	0.854300
1826	0.854400
1827	0.854500
1831	0.854600
1844	0.854700
1851	0.854800
1852	0.854900
1859	0.855000
1862	0.855100
1864	0.855200
1879	0.855300
1893	0.855400
1899	0.855500
1908	0.855600
1922	0.855700
1930	0.855800
1931	0.855900
1934	0.856000
1938	0.856100
1939	0.856200
1950	0.856300
1959	0.856400
1967	0.856500
1975	0.856600
1980	0.856700
1985	0.856800
1994	0.856900
2005	0.857000
2007	0.857100
2008	0.857200
2020	0.857300
2026	0.857400
2027	0.857500
2028	0.857600
2029	0.857700
2033	0.857900
2040	0.858000
2041	0.858200
2045	0.858400
2050	0.858700
2051	0.858800
2064	0.858900
2068	0.859000
2070	0.859100
2080	0.859200
2090	0.859300
2091	0.859400
2092	0.859500
2093	0.859600
2097	0.859700
2107	0.859800
2123	0.859900
2137	0.860000
2138	0.860100
2140	0.860200
2143	0.860300
2144	0.860400
2151	0.860600
2154	0.860700
2156	0.860800
2159	0.860900
2175	0.861000
2178	0.861100
2190	0.861200
2191	0.861300
2201	0.861400
2203	0.861500
2207	0.861600
2218	0.861700
2229	0.861800
2236	0.861900
2241	0.862000
2249	0.862100
2251	0.862200
2252	0.862300
2253	0.862400
2275	0.862500
2277	0.862600
2281	0.862700
2284	0.862800
2287	0.862900
2295	0.863000
2305	0.863100
2307	0.863200
2313	0.863300
2316	0.863400
2326	0.863500
2330	0.863600
2332	0.863700
2333	0.863800
2342	0.863900
2351	0.864000
2357	0.864200
2366	0.864300
2380	0.864400
2381	0.864600
2382	0.864700
2386	0.864800
2389	0.864900
2402	0.865000
2405	0.865100
2408	0.865200
2414	0.865300
2417	0.865400
2427	0.865500
2430	0.865700
2431	0.865800
2441	0.865900
2443	0.866000
2445	0.866300
2448	0.866500
2452	0.866600
2459	0.866700
2462	0.866800
2463	0.866900
2465	0.867000
2475	0.867100
2476	0.867200
2478	0.867300
2497	0.867400
2503	0.867500
2508	0.867600
2510	0.867700
2513	0.867800
2514	0.867900
2521	0.868000
2541	0.868100
2549	0.868200
2552	0.868300
2553	0.868400
2555	0.868600
2564	0.868700
2567	0.868800
2586	0.868900
2587	0.869000
2588	0.869100
2596	0.869200
2600	0.869300
2603	0.869500
2604	0.869600
2615	0.869700
2622	0.869800
2638	0.869900
2648	0.870100
2657	0.870200
2662	0.870300
2663	0.870400
2688	0.870500
2694	0.870600
2695	0.870700
2705	0.870800
2706	0.871000
2723	0.871100
2730	0.871200
2749	0.871300
2757	0.871400
2764	0.871500
2765	0.871600
2766	0.871700
2773	0.871800
2776	0.871900
2787	0.872100
2789	0.872200
2791	0.872300
2793	0.872400
2797	0.872500
2836	0.872600
2872	0.872700
2874	0.872800
2886	0.872900
2888	0.873000
2891	0.873100
2903	0.873200
2925	0.873300
2929	0.873500
2933	0.873600
2958	0.873700
2960	0.873800
2961	0.873900
2962	0.874000
2965	0.874100
2972	0.874200
2973	0.874300
2974	0.874400
3004	0.874500
3008	0.874600
3014	0.874700
3019	0.874800
3034	0.874900
3037	0.875000
3046	0.875100
3050	0.875200
3051	0.875300
3060	0.875500
3069	0.875600
3073	0.875700
3077	0.875900
3087	0.876000
3102	0.876100
3105	0.876200
3122	0.876300
3140	0.876400
3141	0.876500
3150	0.876600
3153	0.876700
3172	0.876800
3218	0.876900
3225	0.877000
3240	0.877100
3245	0.877200
3303	0.877300
3304	0.877400
3305	0.877500
3311	0.877600
3318	0.877700
3325	0.877800
3358	0.877900
3370	0.878000
3378	0.878100
3379	0.878200
3392	0.878300
3415	0.878400
3421	0.878500
3424	0.878600
3431	0.878700
3438	0.878800
3441	0.878900
3456	0.879000
3459	0.879100
3465	0.879200
3468	0.879300
3469	0.879400
3475	0.879500
3482	0.879600
3483	0.879700
3495	0.879800
3500	0.879900
3513	0.880000
3527	0.880100
3529	0.880300
3533	0.880500
3535	0.880600
3544	0.880700
3555	0.880800
3559	0.880900
3570	0.881000
3580	0.881100
3595	0.881200
3609	0.881300
3630	0.881400
3631	0.881500
3633	0.881600
3671	0.881700
3679	0.881800
3684	0.881900
3685	0.882000
3699	0.882100
3703	0.882200
3723	0.882300
3726	0.882400
3737	0.882500
3744	0.882700
3787	0.882800
3792	0.882900
3795	0.883100
3798	0.883200
3800	0.883300
3824	0.883400
3829	0.883500
3847	0.883600
3856	0.883700
3862	0.883800
3866	0.883900
3873	0.884000
3888	0.884100
3903	0.884200
3910	0.884300
3914	0.884400
3917	0.884500
3950	0.884600
3961	0.884700
3975	0.884800
3977	0.884900
3993	0.885000
3996	0.885100
4013	0.885200
4028	0.885300
4032	0.885400
4052	0.885600
4059	0.885700
4106	0.885800
4107	0.885900
4113	0.886000
4135	0.886200
4145	0.886400
4148	0.886500
4156	0.886600
4175	0.886700
4187	0.886800
4188	0.886900
4198	0.887000
4202	0.887100
4206	0.887200
4212	0.887300
4215	0.887400
4237	0.887500
4245	0.887600
4249	0.887700
4262	0.887800
4265	0.887900
4267	0.888000
4273	0.888100
4276	0.888200
4282	0.888300
4289	0.888400
4295	0.888500
4308	0.888600
4309	0.888700
4345	0.888800
4355	0.889000
4365	0.889100
4372	0.889200
4394	0.889300
4404	0.889400
4407	0.889500
4420	0.889600
4427	0.889700
4431	0.889800
4433	0.889900
4446	0.890000
4471	0.890100
4473	0.890200
4495	0.890300
4498	0.890400
4556	0.890500
4578	0.890600
4580	0.890700
4584	0.890900
4590	0.891000
4608	0.891100
4619	0.891200
4633	0.891300
4638	0.891400
4662	0.891500
4672	0.891600
4694	0.891700
4697	0.891800
4720	0.891900
4737	0.892000
4768	0.892100
4771	0.892200
4778	0.892300
4810	0.892400
4851	0.892500
4878	0.892600
4879	0.892700
4883	0.892800
4895	0.892900
4917	0.893000
4921	0.893100
4927	0.893200
4933	0.893300
4950	0.893400
4991	0.893500
5002	0.893600
5018	0.893700
5024	0.893800
5031	0.893900
5043	0.894000
5070	0.894100
5087	0.894200
5111	0.894300
5120	0.894400
5121	0.894500
5144	0.894600
5147	0.894700
5152	0.894800
5167	0.894900
5170	0.895000
5190	0.895100
5200	0.895200
5259	0.895300
5271	0.895400
5276	0.895500
5279	0.895600
5283	0.895700
5284	0.895800
5310	0.895900
5333	0.896000
5334	0.896100
5358	0.896200
5369	0.896300
5370	0.896400
5394	0.896500
5401	0.896600
5414	0.896700
5431	0.896800
5438	0.896900
5465	0.897000
5475	0.897100
5480	0.897200
5503	0.897300
5553	0.897400
5558	0.897500
5603	0.897600
5609	0.897700
5614	0.897900
5666	0.898000
5740	0.898100
5751	0.898200
5752	0.898300
5794	0.898400
5800	0.898500
5805	0.898600
5830	0.898700
5864	0.898800
5943	0.898900
5952	0.899000
5988	0.899100
5997	0.899200
6014	0.899300
6057	0.899400
6093	0.899600
6094	0.899700
6106	0.899800
6118	0.899900
6194	0.900000
6202	0.900100
6214	0.900200
6258	0.900300
6259	0.900400
6282	0.900500
6295	0.900600
6298	0.900700
6325	0.900800
6370	0.900900
6451	0.901100
6486	0.901200
6499	0.901300
6516	0.901400
6523	0.901500
6535	0.901600
6539	0.901700
6544	0.901800
6583	0.901900
6608	0.902000
6622	0.902100
6627	0.902200
6663	0.902300
6695	0.902400
6719	0.902500
6737	0.902600
6799	0.902700
6809	0.902800
6837	0.902900
6840	0.903000
6849	0.903100
6908	0.903200
6934	0.903300
6946	0.903400
6952	0.903500
6972	0.903600
6985	0.903800
6998	0.903900
7015	0.904000
7026	0.904100
7062	0.904200
7067	0.904300
7079	0.904400
7082	0.904500
7083	0.904600
7088	0.904700
7120	0.904800
7163	0.904900
7172	0.905000
7178	0.905100
7192	0.905200
7210	0.905300
7268	0.905400
7298	0.905500
7301	0.905600
7309	0.905700
7312	0.905800
7319	0.905900
7321	0.906000
7387	0.906100
7426	0.906200
7444	0.906300
7462	0.906500
7473	0.906600
7571	0.906700
7649	0.906800
7655	0.906900
7747	0.907000
7752	0.907100
7753	0.907200
7771	0.907300
7794	0.907400
7847	0.907500
7875	0.907600
7882	0.907700
7892	0.907800
7894	0.907900
7915	0.908000
7944	0.908100
7979	0.908200
8002	0.908300
8038	0.908400
8039	0.908500
8061	0.908600
8064	0.908700
8130	0.908800
8141	0.908900
8170	0.909000
8202	0.909100
8203	0.909200
8300	0.909300
8309	0.909400
8342	0.909500
8364	0.909600
8418	0.909800
8480	0.909900
8490	0.910000
8521	0.910100
8538	0.910200
8559	0.910300
8574	0.910400
8583	0.910500
8621	0.910600
8642	0.910700
8704	0.910800
8720	0.910900
8773	0.911000
8789	0.911100
8809	0.911300
8810	0.911400
8818	0.911500
8826	0.911600
8865	0.911700
8880	0.911800
8913	0.911900
8924	0.912000
8972	0.912100
8973	0.912200
9008	0.912300
9047	0.912400
9072	0.912500
9102	0.912600
9111	0.912700
9126	0.912800
9162	0.912900
9207	0.913000
9288	0.913100
9290	0.913200
9314	0.913300
9321	0.913400
9338	0.913500
9344	0.913600
9459	0.913700
9502	0.913800
9586	0.913900
9607	0.914000
9609	0.914100
9664	0.914200
9684	0.914300
9716	0.914400
9725	0.914500
9850	0.914600
9969	0.914700
10080	0.914800
10126	0.914900
10129	0.915000
