key	frequency
0	0.197317
1	0.315598
2	0.404232
3	0.463940
4	0.508224
5	0.541732
6	0.568783
7	0.590358
8	0.608268
9	0.623822
10	0.638438
11	0.650065
12	0.660820
13	0.670462
14	0.679123
15	0.687282
16	0.695419
17	0.701811
18	0.707832
19	0.713634
20	0.718870
21	0.724367
22	0.729385
23	0.734228
24	0.738874
25	0.742539
26	0.746510
27	0.749804
28	0.752923
29	0.756348
30	0.759271
31	0.762195
32	0.764856
33	0.767517
34	0.769983
35	0.772644
36	0.775262
37	0.777880
38	0.780345
39	0.782504
40	0.784402
41	0.786278
42	0.788198
43	0.790052
44	0.791667
45	0.793390
46	0.795113
47	0.796313
48	0.797928
49	0.799607
50	0.801025
51	0.802945
52	0.804363
53	0.805672
54	0.806937
55	0.808377
56	0.809882
57	0.810886
58	0.812304
59	0.813613
60	0.815052
61	0.816492
62	0.817866
63	0.818957
64	0.819764
65	0.820942
66	0.822120
67	0.823233
68	0.824324
69	0.825262
70	0.826483
71	0.827465
72	0.828447
73	0.829516
74	0.830388
75	0.831239
76	0.831959
77	0.832570
78	0.833333
79	0.833988
80	0.834795
81	0.835711
82	0.836518
83	0.837391
84	0.838154
85	0.838809
86	0.839682
87	0.840249
88	0.840860
89	0.841601
90	0.842256
91	0.842997
92	0.843695
93	0.844284
94	0.844852
95	0.845375
96	0.846226
97	0.846859
98	0.847382
99	0.848102
100	0.848604
101	0.849062
102	0.849542
103	0.850109
104	0.850829
105	0.851636
106	0.852072
107	0.852531
108	0.853054
109	0.853425
110	0.853861
111	0.854516
112	0.855148
113	0.855476
114	0.856130
115	0.856654
116	0.857024
117	0.857439
118	0.857962
119	0.858551
120	0.858988
121	0.859446
122	0.859860
123	0.860253
124	0.860733
125	0.861147
126	0.861518
127	0.861889
128	0.862282
129	0.862740
130	0.863111
131	0.863503
132	0.863853
133	0.864267
134	0.864616
135	0.865118
136	0.865401
137	0.865707
138	0.866187
139	0.866492
140	0.866754
141	0.867147
142	0.867474
143	0.867845
144	0.868281
145	0.868695
146	0.869197
147	0.869481
148	0.869852
149	0.870266
150	0.870746
151	0.870986
152	0.871379
153	0.871728
154	0.872033
155	0.872491
156	0.872775
157	0.872971
158	0.873277
159	0.873604
160	0.874040
161	0.874411
162	0.874629
163	0.874935
164	0.875240
165	0.875502
166	0.875785
167	0.876047
168	0.876331
169	0.876505
170	0.876789
171	0.877247
172	0.877640
173	0.877858
174	0.878120
175	0.878403
176	0.878643
177	0.878905
178	0.879210
179	0.879472
180	0.879734
181	0.880127
182	0.880410
183	0.880716
184	0.880955
185	0.881195
186	0.881435
187	0.881610
188	0.881981
189	0.882221
190	0.882330
191	0.882635
192	0.882875
193	0.883137
194	0.883224
195	0.883421
196	0.883595
197	0.883682
198	0.883835
199	0.883988
200	0.884119
201	0.884424
202	0.884599
203	0.884839
204	0.885100
205	0.885297
206	0.885493
207	0.885646
208	0.885929
209	0.886169
210	0.886300
211	0.886562
212	0.886715
213	0.886802
214	0.887151
215	0.887282
216	0.887391
217	0.887587
218	0.887805
219	0.888220
220	0.888525
221	0.888765
222	0.888983
223	0.889267
224	0.889551
225	0.889747
226	0.889987
227	0.890161
228	0.890292
229	0.890445
230	0.890729
231	0.890903
232	0.891078
233	0.891187
234	0.891449
235	0.891601
236	0.891754
237	0.891863
238	0.892016
239	0.892190
240	0.892299
241	0.892474
242	0.892627
243	0.892692
244	0.892823
245	0.892997
246	0.893172
247	0.893325
248	0.893521
249	0.893652
250	0.893739
251	0.893848
252	0.894023
253	0.894154
254	0.894328
255	0.894481
256	0.894568
257	0.894764
258	0.894852
259	0.894983
260	0.895157
261	0.895310
262	0.895419
263	0.895637
264	0.895724
265	0.895942
266	0.896117
267	0.896291
268	0.896401
269	0.896531
270	0.896728
271	0.896902
272	0.897033
273	0.897142
274	0.897382
275	0.897600
276	0.897753
277	0.897884
278	0.898168
279	0.898298
280	0.898386
281	0.898604
282	0.898647
283	0.898757
284	0.898844
285	0.898953
286	0.899062
287	0.899258
288	0.899498
289	0.899607
290	0.899716
291	0.899913
292	0.900131
293	0.900240
294	0.900349
295	0.900436
296	0.900589
297	0.900698
298	0.900764
299	0.900916
300	0.901069
301	0.901178
302	0.901309
303	0.901396
304	0.901483
305	0.901702
306	0.901832
307	0.902007
308	0.902138
309	0.902247
310	0.902421
311	0.902465
312	0.902574
313	0.902792
314	0.902858
315	0.902923
316	0.903120
317	0.903272
318	0.903338
319	0.903469
320	0.903556
321	0.903621
322	0.903774
323	0.903861
324	0.904058
325	0.904167
326	0.904232
327	0.904341
328	0.904559
329	0.904734
330	0.904799
331	0.904821
332	0.904908
333	0.905017
334	0.905148
335	0.905257
336	0.905323
337	0.905388
338	0.905476
339	0.905541
340	0.905628
341	0.905803
342	0.905912
343	0.906043
344	0.906174
345	0.906217
346	0.906392
347	0.906523
348	0.906632
349	0.906741
350	0.906872
351	0.906959
352	0.907090
353	0.907199
354	0.907308
355	0.907417
356	0.907461
357	0.907504
358	0.907548
359	0.907635
360	0.907766
361	0.907897
362	0.907984
363	0.908137
364	0.908246
365	0.908355
366	0.908486
367	0.908639
368	0.908770
369	0.908835
370	0.908901
371	0.908988
372	0.909119
373	0.909184
374	0.909337
375	0.909468
376	0.909533
377	0.909686
378	0.909751
379	0.909860
380	0.909969
381	0.910122
382	0.910166
383	0.910297
384	0.910340
385	0.910406
386	0.910493
387	0.910558
388	0.910580
389	0.910624
390	0.910711
391	0.910777
392	0.910820
393	0.910864
395	0.910951
396	0.911017
397	0.911104
398	0.911147
399	0.911278
400	0.911387
401	0.911475
402	0.911562
403	0.911649
404	0.911715
405	0.911736
406	0.911846
407	0.911889
408	0.911955
409	0.912042
410	0.912216
411	0.912282
412	0.912369
413	0.912391
414	0.912478
415	0.912587
417	0.912609
418	0.912675
419	0.912740
420	0.912914
421	0.913002
422	0.913067
423	0.913154
424	0.913307
425	0.913438
426	0.913547
427	0.913591
428	0.913700
429	0.913874
430	0.913918
431	0.913940
432	0.914005
433	0.914071
434	0.914136
435	0.914158
436	0.914223
437	0.914398
438	0.914507
439	0.914638
440	0.914682
441	0.914769
442	0.914878
443	0.914965
444	0.915074
445	0.915161
446	0.915292
447	0.915314
448	0.915380
449	0.915532
450	0.915598
451	0.915663
452	0.915685
453	0.915729
454	0.915772
455	0.915816
456	0.915903
457	0.915947
458	0.915990
459	0.916012
460	0.916099
461	0.916121
462	0.916165
463	0.916274
464	0.916296
465	0.916405
466	0.916492
467	0.916514
468	0.916579
469	0.916623
470	0.916645
471	0.916688
472	0.916798
473	0.916885
474	0.916928
475	0.916950
476	0.917016
477	0.917103
478	0.917234
479	0.917365
480	0.917496
481	0.917561
482	0.917692
483	0.917757
484	0.917823
485	0.917888
486	0.917932
487	0.918019
488	0.918041
489	0.918172
490	0.918194
491	0.918237
492	0.918303
493	0.918325
494	0.918368
495	0.918455
496	0.918521
498	0.918543
499	0.918608
501	0.918739
502	0.918783
503	0.918805
504	0.918892
505	0.919023
506	0.919088
507	0.919132
508	0.919219
509	0.919350
510	0.919394
511	0.919415
512	0.919459
513	0.919568
514	0.919721
516	0.919743
518	0.919808
519	0.919830
520	0.919895
521	0.919983
522	0.920092
523	0.920157
524	0.920244
525	0.920266
526	0.920288
527	0.920332
528	0.920397
529	0.920419
530	0.920506
531	0.920528
532	0.920550
533	0.920615
534	0.920702
535	0.920877
536	0.920964
537	0.921095
538	0.921139
539	0.921161
540	0.921248
541	0.921313
542	0.921379
543	0.921466
544	0.921488
545	0.921531
547	0.921640
548	0.921706
549	0.921837
550	0.921924
551	0.922011
552	0.922055
553	0.922099
554	0.922142
555	0.922208
556	0.922273
557	0.922295
558	0.922382
559	0.922448
561	0.922513
562	0.922535
563	0.922557
564	0.922622
565	0.922709
566	0.922753
567	0.922818
568	0.922906
569	0.923058
570	0.923168
571	0.923211
572	0.923298
573	0.923364
574	0.923429
575	0.923473
577	0.923538
578	0.923582
579	0.923735
580	0.923778
581	0.923844
582	0.923909
585	0.923997
586	0.924040
587	0.924149
588	0.924193
589	0.924258
591	0.924280
592	0.924367
593	0.924433
594	0.924498
595	0.924520
596	0.924586
597	0.924651
599	0.924695
600	0.924716
601	0.924782
602	0.924847
603	0.924869
604	0.924956
606	0.925022
607	0.925044
608	0.925109
609	0.925153
610	0.925262
611	0.925284
612	0.925349
613	0.925393
614	0.925502
615	0.925545
616	0.925567
617	0.925611
618	0.925633
619	0.925676
620	0.925720
621	0.925742
622	0.925764
623	0.925785
624	0.925807
625	0.925894
626	0.925916
627	0.925960
629	0.926003
631	0.926025
632	0.926091
633	0.926113
634	0.926134
635	0.926156
636	0.926243
637	0.926287
638	0.926353
639	0.926462
640	0.926527
641	0.926614
642	0.926658
643	0.926723
644	0.926767
645	0.926811
646	0.926876
647	0.926920
648	0.926942
649	0.927007
650	0.927072
651	0.927138
653	0.927203
654	0.927269
655	0.927291
656	0.927356
657	0.927421
658	0.927443
659	0.927531
660	0.927618
661	0.927661
662	0.927705
663	0.927771
664	0.927792
665	0.927814
666	0.927858
667	0.927923
668	0.928010
670	0.928054
671	0.928076
674	0.928141
675	0.928163
676	0.928250
677	0.928360
678	0.928381
679	0.928425
680	0.928447
681	0.928512
682	0.928556
683	0.928578
684	0.928599
685	0.928621
686	0.928643
687	0.928709
689	0.928752
690	0.928839
691	0.928861
692	0.928883
693	0.928927
694	0.929036
695	0.929101
696	0.929145
697	0.929167
698	0.929188
699	0.929232
700	0.929276
701	0.929319
703	0.929363
704	0.929385
705	0.929407
706	0.929472
708	0.929538
709	0.929603
710	0.929625
712	0.929690
713	0.929734
714	0.929756
715	0.929777
716	0.929799
719	0.929821
720	0.929865
721	0.930017
722	0.930039
723	0.930083
724	0.930127
725	0.930148
726	0.930214
728	0.930279
730	0.930366
732	0.930410
733	0.930454
734	0.930476
735	0.930541
736	0.930585
740	0.930628
741	0.930650
742	0.930694
743	0.930716
744	0.930737
745	0.930803
748	0.930868
749	0.930912
751	0.930934
752	0.931021
754	0.931043
755	0.931086
756	0.931130
757	0.931174
758	0.931239
760	0.931305
761	0.931326
762	0.931348
763	0.931414
764	0.931435
765	0.931479
768	0.931501
769	0.931610
770	0.931675
772	0.931763
773	0.931784
774	0.931828
776	0.931850
777	0.931872
778	0.931937
779	0.932003
780	0.932068
781	0.932134
782	0.932177
783	0.932199
784	0.932243
785	0.932286
786	0.932330
787	0.932395
788	0.932417
790	0.932439
791	0.932461
792	0.932504
793	0.932526
795	0.932548
796	0.932570
797	0.932592
798	0.932657
799	0.932679
800	0.932701
801	0.932766
802	0.932832
803	0.932875
804	0.932919
805	0.933006
806	0.933050
807	0.933137
808	0.933202
809	0.933268
810	0.933290
812	0.933312
813	0.933333
814	0.933399
816	0.933486
817	0.933508
818	0.933551
820	0.933573
821	0.933639
822	0.933661
823	0.933682
824	0.933726
825	0.933791
826	0.933857
827	0.933922
829	0.933966
830	0.933988
831	0.934010
832	0.934097
835	0.934119
836	0.934140
837	0.934162
839	0.934228
840	0.934293
841	0.934337
843	0.934359
844	0.934424
845	0.934446
846	0.934490
848	0.934555
849	0.934664
850	0.934686
851	0.934708
852	0.934751
853	0.934773
854	0.934839
855	0.934860
856	0.934904
857	0.934969
858	0.935013
859	0.935035
860	0.935057
861	0.935122
862	0.935188
863	0.935209
865	0.935275
866	0.935318
868	0.935362
870	0.935406
872	0.935428
875	0.935449
876	0.935471
877	0.935493
878	0.935537
879	0.935580
880	0.935602
881	0.935646
883	0.935668
884	0.935711
886	0.935733
887	0.935755
888	0.935777
889	0.935798
891	0.935820
894	0.935864
900	0.935908
901	0.935929
903	0.935995
904	0.936017
905	0.936060
906	0.936082
907	0.936169
908	0.936191
910	0.936213
912	0.936235
913	0.936300
916	0.936344
917	0.936366
919	0.936409
922	0.936431
924	0.936475
925	0.936562
926	0.936649
927	0.936671
929	0.936693
930	0.936736
931	0.936758
932	0.936846
933	0.936867
934	0.936889
935	0.936911
937	0.936933
938	0.936955
939	0.936976
940	0.937020
941	0.937086
943	0.937107
944	0.937129
945	0.937151
946	0.937195
947	0.937238
948	0.937260
949	0.937282
950	0.937304
953	0.937347
954	0.937369
958	0.937391
959	0.937413
961	0.937456
962	0.937478
963	0.937500
964	0.937522
965	0.937544
966	0.937587
968	0.937631
969	0.937653
971	0.937696
976	0.937740
978	0.937784
979	0.937849
980	0.937871
981	0.937914
982	0.937936
984	0.937980
985	0.938002
986	0.938045
988	0.938067
989	0.938089
990	0.938133
991	0.938154
993	0.938220
996	0.938242
997	0.938264
998	0.938285
999	0.938351
1001	0.938394
1003	0.938460
1007	0.938482
1008	0.938547
1010	0.938569
1011	0.938634
1012	0.938678
1013	0.938700
1014	0.938765
1017	0.938809
1018	0.938874
1019	0.938896
1020	0.938918
1021	0.939005
1023	0.939049
1027	0.939136
1028	0.939202
1029	0.939245
1030	0.939267
1031	0.939289
1032	0.939354
1034	0.939376
1035	0.939398
1036	0.939420
1037	0.939442
1040	0.939463
1041	0.939529
1044	0.939551
1045	0.939572
1046	0.939616
1047	0.939638
1049	0.939725
1050	0.939747
1051	0.939769
1052	0.939791
1054	0.939856
1055	0.939900
1056	0.939921
1057	0.939943
1059	0.939965
1060	0.939987
1064	0.940052
1065	0.940074
1068	0.940096
1072	0.940118
1073	0.940140
1075	0.940161
1076	0.940183
1077	0.940227
1078	0.940249
1081	0.940271
1082	0.940292
1084	0.940314
1085	0.940336
1088	0.940358
1090	0.940380
1091	0.940423
1092	0.940467
1094	0.940510
1095	0.940532
1096	0.940554
1097	0.940620
1098	0.940641
1101	0.940685
1102	0.940707
1104	0.940729
1106	0.940750
1108	0.940794
1109	0.940838
1110	0.940860
1114	0.940881
1117	0.940903
1119	0.940925
1122	0.940947
1123	0.940969
1124	0.941012
1125	0.941056
1128	0.941078
1129	0.941099
1130	0.941143
1131	0.941165
1132	0.941187
1133	0.941230
1134	0.941252
1135	0.941296
1137	0.941318
1138	0.941361
1139	0.941383
1141	0.941405
1143	0.941427
1144	0.941449
1146	0.941514
1147	0.941536
1148	0.941623
1151	0.941667
1154	0.941688
1155	0.941710
1157	0.941798
1158	0.941841
1159	0.941863
1164	0.941907
1166	0.941928
1168	0.941994
1170	0.942059
1172	0.942125
1174	0.942147
1175	0.942168
1176	0.942190
1179	0.942234
1180	0.942277
1181	0.942299
1182	0.942321
1183	0.942343
1185	0.942365
1186	0.942387
1189	0.942408
1192	0.942452
1195	0.942496
1197	0.942517
1198	0.942605
1199	0.942627
1200	0.942670
1201	0.942692
1203	0.942736
1205	0.942801
1206	0.942823
1209	0.942910
1211	0.942997
1213	0.943063
1214	0.943128
1215	0.943150
1218	0.943194
1221	0.943237
1222	0.943259
1224	0.943346
1225	0.943368
1226	0.943390
1228	0.943412
1229	0.943477
1230	0.943499
1231	0.943521
1232	0.943565
1234	0.943586
1237	0.943630
1241	0.943652
1242	0.943674
1244	0.943695
1245	0.943739
1248	0.943783
1252	0.943805
1253	0.943826
1254	0.943848
1257	0.943870
1258	0.943914
1259	0.943935
1260	0.943979
1261	0.944023
1264	0.944045
1267	0.944088
1268	0.944110
1272	0.944132
1274	0.944175
1278	0.944219
1280	0.944241
1281	0.944263
1283	0.944306
1285	0.944328
1291	0.944394
1292	0.944415
1293	0.944437
1294	0.944459
1295	0.944503
1297	0.944546
1299	0.944568
1300	0.944612
1301	0.944655
1302	0.944677
1303	0.944699
1306	0.944721
1307	0.944743
1309	0.944764
1313	0.944786
1317	0.944808
1318	0.944852
1320	0.944873
1321	0.944895
1323	0.944939
1326	0.944961
1328	0.944983
1332	0.945004
1333	0.945026
1335	0.945048
1336	0.945070
1337	0.945092
1340	0.945113
1342	0.945179
1345	0.945223
1346	0.945288
1347	0.945332
1355	0.945375
1357	0.945441
1358	0.945462
1359	0.945484
1360	0.945506
1361	0.945572
1364	0.945637
1365	0.945659
1366	0.945681
1368	0.945724
1372	0.945790
1378	0.945812
1379	0.945833
1380	0.945877
1386	0.945899
1387	0.945921
1388	0.945942
1392	0.945986
1394	0.946030
1397	0.946051
1398	0.946073
1400	0.946139
1402	0.946161
1404	0.946182
1405	0.946248
1406	0.946270
1407	0.946291
1410	0.946335
1411	0.946357
1412	0.946379
1413	0.946401
1417	0.946444
1418	0.946466
1420	0.946510
1421	0.946553
1423	0.946597
1426	0.946619
1427	0.946640
1430	0.946662
1433	0.946684
1436	0.946728
1437	0.946771
1438	0.946793
1439	0.946815
1441	0.946837
1442	0.946859
1443	0.946880
1445	0.946902
1447	0.946924
1450	0.946946
1453	0.947011
1456	0.947055
1458	0.947077
1462	0.947120
1463	0.947164
1466	0.947186
1468	0.947208
1473	0.947251
1475	0.947273
1478	0.947317
1479	0.947339
1480	0.947360
1482	0.947404
1483	0.947426
1484	0.947448
1486	0.947513
1487	0.947535
1488	0.947557
1489	0.947579
1490	0.947600
1494	0.947666
1497	0.947688
1498	0.947753
1499	0.947775
1501	0.947840
1502	0.947862
1503	0.947928
1505	0.947949
1509	0.947971
1510	0.947993
1511	0.948015
1512	0.948058
1516	0.948124
1517	0.948211
1518	0.948233
1519	0.948255
1520	0.948277
1521	0.948320
1529	0.948342
1530	0.948408
1534	0.948451
1537	0.948495
1539	0.948517
1540	0.948538
1543	0.948582
1549	0.948604
1551	0.948647
1552	0.948713
1554	0.948757
1561	0.948778
1562	0.948800
1566	0.948822
1569	0.948844
1572	0.948866
1575	0.948909
1577	0.948953
1579	0.948975
1580	0.948997
1581	0.949018
1582	0.949040
1583	0.949062
1585	0.949084
1586	0.949106
1587	0.949149
1590	0.949171
1596	0.949193
1601	0.949215
1602	0.949236
1603	0.949258
1606	0.949280
1614	0.949324
1615	0.949346
1616	0.949367
1619	0.949389
1621	0.949455
1622	0.949498
1625	0.949520
1626	0.949542
1627	0.949564
1628	0.949586
1633	0.949607
1634	0.949629
1635	0.949651
1638	0.949673
1641	0.949695
1642	0.949716
1643	0.949738
1646	0.949782
1647	0.949804
1648	0.949825
1649	0.949847
1656	0.949869
1659	0.949891
1661	0.949913
1662	0.949935
1663	0.949956
1666	0.949978
1669	0.950000
1671	0.950044
1674	0.950065
1676	0.950109
1677	0.950153
1680	0.950196
1683	0.950218
1684	0.950284
1685	0.950305
1687	0.950349
1688	0.950371
1689	0.950393
1690	0.950414
1691	0.950436
1692	0.950458
1693	0.950480
1694	0.950502
1695	0.950524
1696	0.950545
1706	0.950567
1713	0.950589
1714	0.950611
1716	0.950633
1717	0.950676
1718	0.950720
1720	0.950742
1721	0.950807
1722	0.950851
1723	0.950873
1727	0.950894
1728	0.950916
1734	0.950938
1735	0.950960
1740	0.951003
1742	0.951025
1743	0.951047
1744	0.951069
1746	0.951113
1748	0.951134
1750	0.951156
1751	0.951178
1757	0.951222
1759	0.951243
1761	0.951265
1763	0.951287
1772	0.951309
1773	0.951331
1776	0.951374
1785	0.951396
1786	0.951462
1790	0.951483
1791	0.951505
1792	0.951549
1794	0.951571
1796	0.951592
1797	0.951614
1799	0.951636
1807	0.951680
1808	0.951702
1811	0.951745
1813	0.951767
1817	0.951789
1818	0.951811
1820	0.951832
1821	0.951854
1823	0.951876
1825	0.951920
1829	0.951963
1831	0.952007
1843	0.952029
1854	0.952051
1855	0.952072
1857	0.952094
1858	0.952116
1860	0.952160
1861	0.952182
1862	0.952203
1868	0.952247
1870	0.952269
1872	0.952291
1878	0.952356
1879	0.952378
1884	0.952421
1887	0.952443
1889	0.952465
1890	0.952531
1891	0.952552
1895	0.952574
1899	0.952596
1900	0.952640
1911	0.952661
1915	0.952683
1916	0.952749
1922	0.952771
1925	0.952792
1927	0.952814
1929	0.952836
1931	0.952858
1932	0.952880
1935	0.952923
1939	0.952967
1942	0.952989
1949	0.953010
1954	0.953032
1956	0.953054
1957	0.953076
1962	0.953098
1963	0.953120
1966	0.953141
1977	0.953185
1978	0.953207
1980	0.953229
1981	0.953250
1985	0.953272
1986	0.953294
1989	0.953338
1992	0.953360
1996	0.953381
1999	0.953403
2002	0.953447
2004	0.953469
2016	0.953490
2018	0.953512
2019	0.953534
2020	0.953556
2021	0.953599
2023	0.953621
2024	0.953643
2027	0.953665
2032	0.953687
2034	0.953709
2038	0.953774
2039	0.953818
2044	0.953839
2045	0.953861
2046	0.953883
2056	0.953905
2058	0.953927
2059	0.953949
2060	0.953970
2062	0.953992
2068	0.954014
2071	0.954036
2077	0.954058
2079	0.954079
2080	0.954123
2081	0.954167
2085	0.954210
2086	0.954232
2088	0.954276
2089	0.954298
2097	0.954319
2100	0.954341
2101	0.954363
2104	0.954385
2106	0.954407
2109	0.954428
2114	0.954450
2116	0.954472
2119	0.954516
2126	0.954538
2131	0.954559
2133	0.954603
2145	0.954647
2147	0.954668
2148	0.954690
2149	0.954734
2150	0.954756
2155	0.954799
2156	0.954843
2157	0.954865
2162	0.954908
2163	0.954930
2167	0.954996
2172	0.955017
2174	0.955039
2176	0.955061
2177	0.955127
2179	0.955148
2181	0.955170
2183	0.955214
2187	0.955236
2191	0.955279
2192	0.955301
2193	0.955323
2201	0.955345
2202	0.955366
2203	0.955388
2215	0.955410
2217	0.955432
2219	0.955454
2221	0.955476
2224	0.955497
2225	0.955541
2228	0.955563
2232	0.955585
2235	0.955606
2237	0.955628
2239	0.955650
2247	0.955694
2252	0.955716
2263	0.955737
2264	0.955759
2265	0.955781
2272	0.955803
2275	0.955825
2276	0.955846
2278	0.955868
2280	0.955912
2282	0.955934
2286	0.955955
2289	0.955977
2292	0.955999
2296	0.956021
2297	0.956043
2303	0.956065
2311	0.956086
2317	0.956108
2329	0.956130
2341	0.956152
2345	0.956174
2346	0.956195
2348	0.956217
2355	0.956239
2359	0.956261
2361	0.956283
2367	0.956305
2370	0.956326
2372	0.956348
2375	0.956370
2378	0.956392
2380	0.956414
2383	0.956435
2385	0.956479
2387	0.956501
2389	0.956545
2392	0.956566
2396	0.956588
2403	0.956632
2406	0.956654
2409	0.956675
2413	0.956719
2415	0.956741
2422	0.956784
2427	0.956806
2430	0.956828
2433	0.956872
2437	0.956894
2441	0.956915
2448	0.956937
2451	0.956959
