key	frequency
0	0.180400
1	0.260100
2	0.320600
3	0.359900
4	0.389000
5	0.411300
6	0.430100
7	0.447300
8	0.458200
9	0.469100
10	0.478600
11	0.489100
12	0.496700
13	0.505000
14	0.513900
15	0.522100
16	0.528800
17	0.535500
18	0.541300
19	0.545800
20	0.552000
21	0.557200
22	0.562400
23	0.566100
24	0.570400
25	0.574000
26	0.576700
27	0.579200
28	0.581600
29	0.585200
30	0.588900
31	0.591400
32	0.593800
33	0.596000
34	0.598800
35	0.600800
36	0.602200
37	0.603700
38	0.606100
39	0.607700
40	0.609800
41	0.612000
42	0.614600
43	0.615900
44	0.618200
45	0.619700
46	0.622300
47	0.624200
48	0.625500
49	0.627000
50	0.628300
51	0.630400
52	0.632000
53	0.633900
54	0.635200
55	0.636500
56	0.638300
57	0.639400
58	0.640500
59	0.642100
60	0.643200
61	0.644400
62	0.645200
63	0.646400
64	0.647700
65	0.648900
66	0.650300
67	0.651700
68	0.652800
69	0.654100
70	0.655900
71	0.657100
72	0.657400
73	0.657900
74	0.658800
75	0.659800
76	0.660700
77	0.661800
78	0.662800
79	0.663300
80	0.664400
81	0.665000
82	0.665800
83	0.666100
84	0.667000
85	0.667700
86	0.668200
87	0.668700
88	0.669700
89	0.670500
90	0.671300
91	0.672300
92	0.673000
93	0.674000
94	0.674300
95	0.675000
96	0.676400
97	0.676900
98	0.677800
99	0.678100
100	0.678600
101	0.679100
102	0.680200
103	0.680800
104	0.681800
105	0.682400
106	0.683100
107	0.683600
108	0.684500
109	0.685200
110	0.685800
111	0.686700
112	0.687100
113	0.687600
114	0.688500
115	0.689100
116	0.690400
117	0.691300
118	0.692100
119	0.692200
120	0.692600
121	0.693700
122	0.694700
123	0.695100
124	0.695800
125	0.696300
126	0.696800
127	0.697300
128	0.697500
129	0.697900
130	0.698300
131	0.698700
132	0.699600
133	0.700000
134	0.700600
135	0.701300
136	0.701900
137	0.702400
138	0.703000
139	0.703500
140	0.704200
141	0.704500
142	0.705000
143	0.705300
144	0.705700
145	0.706200
146	0.706500
147	0.706800
148	0.707200
149	0.707700
150	0.708500
151	0.708700
152	0.709200
153	0.709600
154	0.709800
155	0.710100
156	0.710700
157	0.711200
158	0.711600
159	0.711800
160	0.712100
161	0.712600
162	0.712800
163	0.712900
164	0.713300
165	0.713500
166	0.714000
167	0.714700
168	0.715300
169	0.715700
170	0.716100
171	0.716600
172	0.716900
173	0.717100
174	0.717700
175	0.717900
176	0.718300
178	0.718500
179	0.719200
180	0.719700
181	0.720100
182	0.720500
183	0.720700
184	0.720900
185	0.721100
186	0.721300
187	0.721500
188	0.722200
189	0.722500
190	0.722800
191	0.723000
192	0.723500
193	0.723700
194	0.724200
195	0.724500
196	0.725100
197	0.725600
198	0.725800
200	0.726200
201	0.726500
202	0.726700
203	0.727200
204	0.727400
205	0.727500
206	0.727800
207	0.728100
208	0.728500
209	0.728700
210	0.729000
211	0.729100
212	0.729400
213	0.729600
214	0.729800
215	0.730000
216	0.730300
217	0.730700
218	0.730900
219	0.731200
220	0.731500
221	0.731600
222	0.731700
223	0.731900
224	0.732500
225	0.732800
226	0.732900
227	0.733100
228	0.733500
229	0.733800
230	0.734000
231	0.734400
233	0.734800
234	0.735200
235	0.735400
236	0.735500
237	0.735800
238	0.735900
239	0.736000
240	0.736300
242	0.736700
243	0.736800
244	0.737200
245	0.737600
246	0.738100
247	0.738200
249	0.738300
250	0.738500
251	0.738600
253	0.739000
254	0.739300
255	0.739600
256	0.739700
257	0.740100
258	0.740400
259	0.740700
260	0.740900
261	0.741100
262	0.741300
263	0.741400
264	0.741500
265	0.741600
266	0.741700
267	0.741900
268	0.742200
269	0.742400
270	0.742600
271	0.742900
273	0.743200
274	0.743400
276	0.743600
277	0.743800
278	0.743900
279	0.744100
280	0.744200
281	0.744300
282	0.744500
283	0.744700
284	0.744800
285	0.745000
286	0.745100
289	0.745300
290	0.745500
291	0.745600
292	0.745800
293	0.746200
294	0.746300
295	0.746500
296	0.746800
298	0.747000
299	0.747300
300	0.747500
301	0.747700
302	0.748000
303	0.748300
304	0.748600
305	0.748800
306	0.749000
307	0.749400
308	0.749700
310	0.749800
311	0.750100
312	0.750200
313	0.750300
314	0.750700
315	0.750800
316	0.751000
317	0.751500
318	0.751800
319	0.752100
320	0.752300
321	0.752700
322	0.753000
323	0.753100
324	0.753300
326	0.753600
327	0.753800
328	0.753900
329	0.754100
330	0.754200
331	0.754300
332	0.754700
333	0.755000
334	0.755200
335	0.755300
337	0.755600
338	0.755700
341	0.755900
343	0.756000
344	0.756300
345	0.756400
346	0.756600
348	0.756700
349	0.756900
350	0.757100
352	0.757300
353	0.757600
356	0.757800
357	0.757900
358	0.758100
359	0.758300
364	0.758500
365	0.758800
367	0.758900
368	0.759100
370	0.759300
371	0.759400
372	0.759500
373	0.759600
374	0.759900
375	0.760000
376	0.760100
377	0.760300
378	0.760500
379	0.760600
380	0.760700
382	0.761000
383	0.761400
384	0.761600
385	0.761800
386	0.761900
388	0.762100
389	0.762200
390	0.762400
391	0.762500
394	0.762700
395	0.763100
396	0.763200
398	0.763300
399	0.763400
401	0.763700
402	0.763900
403	0.764100
404	0.764200
405	0.764400
406	0.764600
407	0.764900
409	0.765000
410	0.765100
411	0.765200
412	0.765400
413	0.765600
414	0.765700
415	0.765800
419	0.765900
420	0.766000
421	0.766100
422	0.766200
424	0.766500
425	0.766600
426	0.766700
429	0.766800
430	0.766900
431	0.767100
435	0.767200
437	0.767500
438	0.767700
439	0.768000
440	0.768200
441	0.768300
442	0.768700
443	0.768900
444	0.769200
446	0.769300
447	0.769500
449	0.770000
450	0.770300
451	0.770400
452	0.770500
454	0.770600
455	0.770800
456	0.770900
457	0.771000
458	0.771100
460	0.771400
461	0.771600
462	0.771700
463	0.771800
464	0.772100
465	0.772200
468	0.772400
469	0.772500
470	0.772600
472	0.772700
473	0.773000
474	0.773300
475	0.773400
477	0.773700
478	0.773800
479	0.774000
480	0.774100
481	0.774200
485	0.774300
486	0.774400
487	0.774500
488	0.774700
489	0.774800
490	0.774900
491	0.775000
492	0.775300
493	0.775800
495	0.775900
498	0.776100
499	0.776200
500	0.776300
501	0.776500
504	0.776600
506	0.776700
508	0.776900
509	0.777000
510	0.777300
513	0.777400
514	0.777500
518	0.777600
519	0.777700
522	0.778000
525	0.778100
526	0.778300
527	0.778400
528	0.778500
529	0.778600
532	0.778700
534	0.778800
535	0.779000
536	0.779100
537	0.779200
538	0.779300
541	0.779400
542	0.779500
543	0.779600
544	0.779700
545	0.779800
547	0.779900
548	0.780000
551	0.780200
555	0.780300
556	0.780400
557	0.780500
558	0.780600
560	0.780700
562	0.780900
563	0.781000
565	0.781200
566	0.781300
567	0.781400
568	0.781500
570	0.781600
571	0.781700
573	0.781800
574	0.782000
575	0.782100
576	0.782400
580	0.782600
581	0.782900
583	0.783100
584	0.783200
585	0.783400
587	0.783800
589	0.784000
590	0.784100
592	0.784400
595	0.784500
596	0.784600
598	0.784900
600	0.785000
602	0.785100
606	0.785300
607	0.785500
608	0.785600
611	0.785700
614	0.785800
615	0.785900
617	0.786000
618	0.786100
619	0.786200
622	0.786300
623	0.786600
624	0.786800
625	0.786900
626	0.787000
627	0.787100
630	0.787300
634	0.787500
636	0.787600
639	0.787700
640	0.787800
642	0.787900
644	0.788000
648	0.788100
649	0.788200
650	0.788400
652	0.788500
653	0.788600
655	0.788900
656	0.789000
657	0.789100
658	0.789200
659	0.789400
661	0.789600
665	0.789800
666	0.790000
668	0.790100
671	0.790300
672	0.790400
675	0.790500
676	0.790700
679	0.790800
681	0.791000
682	0.791100
683	0.791200
684	0.791300
685	0.791400
690	0.791600
692	0.791700
693	0.791900
694	0.792100
695	0.792200
697	0.792300
698	0.792400
699	0.792600
703	0.792800
704	0.793000
706	0.793100
707	0.793200
708	0.793300
710	0.793400
712	0.793500
713	0.793600
714	0.793700
717	0.793800
719	0.793900
720	0.794100
723	0.794300
724	0.794400
725	0.794500
729	0.794600
730	0.794700
732	0.794900
733	0.795000
734	0.795200
735	0.795300
738	0.795400
739	0.795500
741	0.795700
742	0.795800
743	0.795900
747	0.796100
748	0.796200
750	0.796400
752	0.796500
753	0.796700
755	0.796800
756	0.797000
758	0.797100
763	0.797300
764	0.797400
766	0.797500
767	0.797600
771	0.797700
772	0.797800
775	0.797900
776	0.798000
777	0.798100
779	0.798300
780	0.798400
781	0.798500
783	0.798600
784	0.798700
785	0.798800
786	0.798900
789	0.799000
791	0.799100
795	0.799200
798	0.799400
799	0.799500
804	0.799600
805	0.799700
807	0.799800
808	0.800000
809	0.800100
812	0.800200
814	0.800500
815	0.800600
817	0.800800
819	0.801000
822	0.801100
824	0.801200
825	0.801300
826	0.801400
827	0.801500
830	0.801600
832	0.801700
833	0.802000
836	0.802100
837	0.802200
838	0.802300
841	0.802500
844	0.802600
845	0.802700
848	0.802800
849	0.802900
858	0.803000
859	0.803100
863	0.803200
866	0.803300
868	0.803400
870	0.803500
873	0.803600
874	0.803700
878	0.803800
881	0.803900
883	0.804000
886	0.804100
889	0.804200
890	0.804300
893	0.804400
898	0.804500
901	0.804800
902	0.804900
904	0.805000
905	0.805100
907	0.805400
908	0.805900
909	0.806000
913	0.806100
920	0.806300
921	0.806400
922	0.806500
924	0.806600
929	0.806700
931	0.806800
933	0.806900
936	0.807000
937	0.807100
939	0.807300
940	0.807400
941	0.807500
943	0.807600
944	0.807700
945	0.807900
948	0.808000
949	0.808300
951	0.808400
957	0.808500
958	0.808600
960	0.808700
962	0.808800
963	0.808900
965	0.809000
966	0.809100
967	0.809200
971	0.809300
972	0.809400
973	0.809600
975	0.809700
977	0.809800
979	0.809900
980	0.810000
981	0.810100
983	0.810200
984	0.810300
990	0.810400
991	0.810500
993	0.810600
994	0.810700
999	0.810800
1000	0.810900
1001	0.811100
1002	0.811300
1005	0.811400
1008	0.811500
1014	0.811700
1015	0.811900
1016	0.812100
1018	0.812200
1021	0.812300
1025	0.812500
1028	0.812700
1029	0.812800
1037	0.812900
1039	0.813100
1040	0.813200
1044	0.813300
1046	0.813500
1054	0.813600
1055	0.813700
1056	0.813800
1057	0.813900
1065	0.814000
1067	0.814200
1070	0.814300
1074	0.814400
1075	0.814500
1076	0.814600
1077	0.814700
1078	0.814800
1081	0.814900
1083	0.815000
1084	0.815100
1091	0.815200
1092	0.815300
1095	0.815400
1096	0.815500
1100	0.815600
1103	0.815700
1105	0.815800
1115	0.815900
1118	0.816000
1120	0.816100
1124	0.816200
1137	0.816300
1139	0.816400
1141	0.816500
1145	0.816600
1149	0.816800
1151	0.817100
1152	0.817200
1155	0.817300
1156	0.817400
1160	0.817500
1165	0.817600
1167	0.817900
1170	0.818000
1181	0.818100
1183	0.818300
1188	0.818400
1189	0.818500
1190	0.818600
1192	0.818800
1194	0.818900
1195	0.819000
1196	0.819100
1198	0.819200
1203	0.819400
1206	0.819500
1210	0.819600
1211	0.819800
1217	0.819900
1225	0.820000
1236	0.820100
1238	0.820200
1239	0.820300
1242	0.820400
1246	0.820500
1249	0.820600
1258	0.820700
1262	0.820800
1265	0.820900
1269	0.821100
1273	0.821200
1274	0.821300
1276	0.821400
1278	0.821500
1279	0.821600
1281	0.821700
1283	0.821800
1286	0.821900
1288	0.822000
1289	0.822100
1293	0.822200
1302	0.822300
1303	0.822400
1304	0.822500
1305	0.822600
1315	0.822700
1317	0.822800
1318	0.822900
1320	0.823000
1328	0.823100
1332	0.823200
1333	0.823300
1334	0.823400
1344	0.823500
1347	0.823600
1352	0.823700
1357	0.823800
1364	0.823900
1366	0.824000
1369	0.824100
1370	0.824200
1372	0.824300
1374	0.824400
1377	0.824600
1380	0.824700
1383	0.824800
1392	0.824900
1396	0.825100
1398	0.825200
1401	0.825300
1404	0.825400
1417	0.825500
1420	0.825600
1429	0.825700
1433	0.825800
1434	0.825900
1440	0.826000
1442	0.826100
1447	0.826200
1453	0.826300
1455	0.826400
1458	0.826500
1462	0.826600
1468	0.826700
1475	0.827100
1481	0.827200
1482	0.827400
1483	0.827500
1484	0.827600
1485	0.827700
1487	0.827800
1490	0.827900
1493	0.828000
1496	0.828100
1501	0.828200
1512	0.828300
1513	0.828400
1517	0.828500
1520	0.828600
1539	0.828700
1544	0.828800
1550	0.828900
1553	0.829000
1559	0.829100
1562	0.829200
1563	0.829300
1565	0.829500
1566	0.829600
1578	0.829700
1581	0.829800
1583	0.829900
1586	0.830000
1594	0.830100
1599	0.830200
1603	0.830300
1604	0.830400
1621	0.830500
1623	0.830600
1624	0.830700
1625	0.830900
1631	0.831000
1633	0.831100
1634	0.831200
1640	0.831300
1644	0.831400
1646	0.831500
1647	0.831600
1654	0.831700
1660	0.831800
1664	0.831900
1685	0.832000
1689	0.832100
1700	0.832200
1704	0.832300
1705	0.832400
1709	0.832600
1713	0.832700
1726	0.832800
1730	0.832900
1736	0.833000
1746	0.833100
1751	0.833200
1764	0.833300
1767	0.833400
1771	0.833500
1772	0.833600
1774	0.833800
1776	0.833900
1783	0.834000
1785	0.834100
1799	0.834200
1817	0.834400
1820	0.834500
1825	0.834600
1830	0.834700
1833	0.834800
1850	0.834900
1852	0.835000
1861	0.835100
1866	0.835200
1868	0.835300
1877	0.835400
1880	0.835500
1881	0.835600
1885	0.835700
1886	0.835800
1890	0.835900
1891	0.836000
1896	0.836100
1897	0.836200
1914	0.836300
1922	0.836400
1929	0.836500
1931	0.836600
1936	0.836800
1938	0.837000
1939	0.837100
1943	0.837200
1944	0.837300
1945	0.837400
1952	0.837500
1954	0.837600
1960	0.837700
1961	0.837800
1963	0.837900
1967	0.838000
1973	0.838100
1977	0.838200
1981	0.838300
1984	0.838400
1987	0.838500
1990	0.838600
1992	0.838700
1993	0.838800
1997	0.838900
2009	0.839000
2013	0.839100
2015	0.839200
2024	0.839300
2029	0.839400
2041	0.839500
2057	0.839600
2065	0.839800
2073	0.839900
2076	0.840000
2079	0.840100
2081	0.840200
2086	0.840300
2107	0.840400
2109	0.840600
2113	0.840800
2115	0.840900
2124	0.841000
2130	0.841100
2137	0.841200
2142	0.841300
2148	0.841400
2153	0.841500
2157	0.841600
2163	0.841700
2193	0.841800
2197	0.841900
2200	0.842000
2203	0.842100
2213	0.842200
2219	0.842300
2233	0.842400
2235	0.842500
2250	0.842600
2257	0.842700
2259	0.842800
2265	0.842900
2274	0.843000
2283	0.843100
2293	0.843200
2297	0.843300
2323	0.843500
2324	0.843600
2331	0.843700
2334	0.843800
2338	0.843900
2341	0.844000
2343	0.844100
2348	0.844200
2352	0.844300
2353	0.844400
2356	0.844500
2371	0.844600
2378	0.844700
2383	0.844800
2385	0.844900
2390	0.845100
2395	0.845200
2402	0.845300
2408	0.845400
2423	0.845500
2424	0.845600
2425	0.845700
2426	0.845800
2432	0.845900
2459	0.846000
2460	0.846200
2469	0.846300
2485	0.846400
2492	0.846500
2531	0.846600
2532	0.846700
2534	0.846800
2535	0.846900
2542	0.847000
2544	0.847100
2554	0.847200
2562	0.847300
2574	0.847400
2602	0.847500
2608	0.847700
2609	0.847900
2610	0.848000
2652	0.848100
2658	0.848200
2670	0.848300
2689	0.848400
2690	0.848500
2703	0.848600
2707	0.848700
2708	0.848800
2711	0.848900
2721	0.849000
2723	0.849100
2739	0.849200
2745	0.849300
2748	0.849400
2782	0.849500
2783	0.849600
2787	0.849700
2788	0.849800
2801	0.850000
2827	0.850100
2832	0.850200
2834	0.850300
2849	0.850400
2855	0.850500
2861	0.850700
2884	0.850800
2887	0.850900
2899	0.851000
2902	0.851100
2911	0.851200
2925	0.851300
2929	0.851400
2945	0.851500
2946	0.851600
2949	0.851700
2956	0.851800
2961	0.851900
2963	0.852000
2969	0.852100
2979	0.852200
2987	0.852300
3012	0.852400
3016	0.852500
3036	0.852600
3040	0.852700
3047	0.852800
3052	0.852900
3057	0.853000
3058	0.853100
3059	0.853200
3066	0.853300
3069	0.853400
3070	0.853500
3074	0.853600
3078	0.853700
3083	0.853800
3085	0.853900
3104	0.854000
3106	0.854100
3122	0.854200
3124	0.854300
3132	0.854400
3137	0.854500
3144	0.854600
3168	0.854700
3169	0.854800
3222	0.854900
3224	0.855000
3246	0.855100
3256	0.855200
3258	0.855300
3269	0.855400
3276	0.855500
3297	0.855600
3315	0.855700
3322	0.855800
3333	0.855900
3339	0.856000
3347	0.856100
3353	0.856200
3360	0.856300
3362	0.856400
3365	0.856500
3387	0.856600
3390	0.856700
3394	0.856800
3399	0.856900
3401	0.857000
3422	0.857100
3443	0.857200
3448	0.857300
3453	0.857400
3454	0.857500
3457	0.857600
3484	0.857700
3509	0.857900
3517	0.858000
3524	0.858100
3548	0.858200
3555	0.858300
3556	0.858400
3559	0.858500
3601	0.858600
3607	0.858700
3651	0.858800
3652	0.858900
3659	0.859000
3684	0.859100
3711	0.859200
3742	0.859300
3759	0.859400
3774	0.859500
3794	0.859600
3833	0.859700
3851	0.859800
3867	0.859900
3871	0.860000
3893	0.860100
3895	0.860200
3897	0.860300
3927	0.860400
3947	0.860500
3949	0.860600
3960	0.860700
3962	0.860800
3965	0.860900
3967	0.861000
3988	0.861100
4006	0.861200
4021	0.861300
4031	0.861500
4033	0.861600
4068	0.861700
4070	0.861800
4083	0.861900
4105	0.862000
4119	0.862200
4146	0.862300
4161	0.862400
4163	0.862500
4185	0.862600
4194	0.862700
4198	0.862800
4217	0.862900
4231	0.863000
4248	0.863200
4270	0.863300
4282	0.863400
4289	0.863500
4290	0.863600
4305	0.863700
4343	0.863800
4350	0.863900
4366	0.864000
4370	0.864100
4379	0.864200
4388	0.864300
4425	0.864400
4452	0.864500
4459	0.864600
4489	0.864700
4524	0.864800
4547	0.864900
4556	0.865000
4563	0.865100
4564	0.865200
4575	0.865300
4578	0.865400
4579	0.865500
4582	0.865600
4596	0.865700
4599	0.865800
4610	0.865900
4613	0.866100
4629	0.866200
4630	0.866300
4636	0.866400
4643	0.866500
4644	0.866600
4654	0.866700
4662	0.866800
4669	0.866900
4673	0.867000
4678	0.867100
4690	0.867200
4703	0.867300
4713	0.867400
4716	0.867500
4717	0.867600
4725	0.867700
4741	0.867800
4790	0.867900
4801	0.868000
4805	0.868200
4818	0.868300
4822	0.868400
4826	0.868500
4827	0.868600
4842	0.868700
4885	0.868800
4902	0.868900
4919	0.869000
4924	0.869100
4983	0.869200
4986	0.869300
4995	0.869400
4999	0.869500
5013	0.869600
5014	0.869700
5016	0.869800
5031	0.869900
5032	0.870000
5034	0.870100
5060	0.870200
5070	0.870300
5072	0.870400
5082	0.870500
5087	0.870600
5097	0.870700
5132	0.870800
5147	0.870900
5176	0.871000
5180	0.871100
5227	0.871200
5262	0.871300
5290	0.871400
5297	0.871500
5324	0.871600
5347	0.871700
5356	0.871800
5372	0.871900
5386	0.872000
5387	0.872100
5429	0.872200
5448	0.872300
5468	0.872400
5470	0.872500
5481	0.872600
5511	0.872700
5520	0.872800
5522	0.872900
5532	0.873000
5533	0.873100
5539	0.873200
5549	0.873300
5551	0.873400
5573	0.873500
5643	0.873600
5697	0.873700
5737	0.873800
5761	0.874000
5765	0.874100
5786	0.874200
5814	0.874300
5823	0.874400
5877	0.874500
5881	0.874600
5944	0.874700
5966	0.874800
5974	0.874900
5979	0.875000
6012	0.875100
6076	0.875200
6079	0.875300
6110	0.875400
6124	0.875500
6128	0.875600
6181	0.875700
6185	0.875800
6200	0.875900
6201	0.876000
6222	0.876100
6240	0.876200
6259	0.876300
6271	0.876400
6298	0.876500
6332	0.876600
6374	0.876700
6381	0.876800
6427	0.876900
6439	0.877000
6481	0.877100
6510	0.877200
6523	0.877300
6526	0.877400
6551	0.877500
6556	0.877600
6560	0.877700
6601	0.877800
6611	0.877900
6616	0.878000
6672	0.878100
6802	0.878200
6842	0.878300
6858	0.878400
6898	0.878500
6952	0.878600
6995	0.878700
7004	0.878800
7028	0.878900
7076	0.879000
7114	0.879100
7130	0.879200
7152	0.879300
7200	0.879400
7214	0.879500
7223	0.879600
7248	0.879700
7278	0.879800
7296	0.879900
7347	0.880000
7381	0.880100
7400	0.880200
7404	0.880300
7415	0.880400
7430	0.880500
7449	0.880600
7486	0.880700
7490	0.880900
7499	0.881000
7545	0.881100
7592	0.881200
7601	0.881300
7618	0.881400
7749	0.881500
7772	0.881600
7796	0.881700
7827	0.881800
7849	0.881900
7861	0.882000
7886	0.882100
7898	0.882200
8005	0.882300
8012	0.882400
8063	0.882500
8073	0.882600
8083	0.882700
8096	0.882800
8112	0.882900
8131	0.883000
8133	0.883100
8155	0.883200
8172	0.883300
8222	0.883400
8235	0.883500
8290	0.883600
8368	0.883700
8374	0.883800
8418	0.883900
8440	0.884000
8444	0.884100
8447	0.884200
8462	0.884300
8485	0.884400
8491	0.884500
8565	0.884600
8583	0.884700
8595	0.884800
8599	0.884900
8631	0.885000
8651	0.885100
8691	0.885200
8715	0.885300
8751	0.885400
8772	0.885500
8785	0.885600
8789	0.885700
8871	0.885800
8918	0.885900
8925	0.886000
8929	0.886100
9019	0.886200
9052	0.886300
9111	0.886400
9127	0.886500
9212	0.886600
9249	0.886700
9287	0.886800
9289	0.886900
9334	0.887000
9392	0.887100
9398	0.887200
9445	0.887300
9466	0.887400
9499	0.887500
9532	0.887600
9566	0.887700
9579	0.887800
9653	0.887900
9774	0.888000
9874	0.888100
9941	0.888200
9948	0.888300
9971	0.888400
9973	0.888500
9990	0.888600
10001	0.888700
10082	0.888800
10090	0.888900
10210	0.889000
10229	0.889100
10247	0.889200
10292	0.889300
10327	0.889400
10368	0.889500
10373	0.889600
10444	0.889700
10543	0.889800
10549	0.889900
10592	0.890000
10595	0.890100
10652	0.890200
10716	0.890300
10855	0.890400
10904	0.890500
10924	0.890600
10936	0.890700
10953	0.890800
11051	0.890900
11088	0.891000
11093	0.891200
11152	0.891300
11259	0.891400
11263	0.891500
11405	0.891600
11437	0.891700
11529	0.891800
11600	0.891900
11632	0.892000
11653	0.892100
11695	0.892200
11808	0.892300
11856	0.892400
11973	0.892500
12053	0.892600
12103	0.892700
12124	0.892800
12148	0.892900
12161	0.893000
12193	0.893100
12212	0.893200
12303	0.893300
12378	0.893400
12397	0.893500
12423	0.893600
12487	0.893700
12497	0.893800
