key	frequency
0	0.130163
1	0.202918
2	0.260160
3	0.299930
4	0.328902
5	0.352494
6	0.372555
7	0.389232
8	0.403968
9	0.416781
10	0.428170
11	0.438117
12	0.446585
13	0.455072
14	0.462356
15	0.470140
16	0.476463
17	0.482676
18	0.488149
19	0.493732
20	0.499057
21	0.503439
22	0.507599
23	0.511944
24	0.515697
25	0.519635
26	0.523148
27	0.526846
28	0.530359
29	0.533909
30	0.537459
31	0.540454
32	0.543153
33	0.546204
34	0.548941
35	0.551585
36	0.554265
37	0.556780
38	0.558962
39	0.561106
40	0.563418
41	0.565451
42	0.567596
43	0.569852
44	0.571886
45	0.573531
46	0.575676
47	0.577395
48	0.579263
49	0.580779
50	0.582313
51	0.583959
52	0.585309
53	0.586843
54	0.588341
55	0.589727
56	0.591225
57	0.592797
58	0.594313
59	0.595847
60	0.597123
61	0.598454
62	0.599675
63	0.601061
64	0.602171
65	0.603446
66	0.604482
67	0.605813
68	0.606774
69	0.608013
70	0.609363
71	0.610324
72	0.611378
73	0.612561
74	0.613726
75	0.614614
76	0.615575
77	0.616666
78	0.617868
79	0.618940
80	0.619902
81	0.620956
82	0.621972
83	0.622841
84	0.623914
85	0.624894
86	0.625504
87	0.626280
88	0.627149
89	0.628185
90	0.629165
91	0.630015
92	0.630921
93	0.631679
94	0.632382
95	0.633066
96	0.633731
97	0.634323
98	0.634896
99	0.635765
100	0.636412
101	0.637059
102	0.637873
103	0.638594
104	0.639352
105	0.639944
106	0.640591
107	0.641201
108	0.641811
109	0.642384
110	0.643068
111	0.643494
112	0.644141
113	0.644806
114	0.645324
115	0.646027
116	0.646637
117	0.647136
118	0.647580
119	0.648208
120	0.648893
121	0.649595
122	0.650427
123	0.650982
124	0.651740
125	0.652350
126	0.652794
127	0.653459
128	0.653995
129	0.654606
130	0.654994
131	0.655586
132	0.656066
133	0.656750
134	0.657490
135	0.658045
136	0.658673
137	0.659191
138	0.659764
139	0.660300
140	0.660799
141	0.661447
142	0.661890
143	0.662316
144	0.662759
145	0.663240
146	0.663758
147	0.664128
148	0.664516
149	0.664996
150	0.665385
151	0.665644
152	0.665921
153	0.666420
154	0.666771
155	0.667271
156	0.667770
157	0.668140
158	0.668380
159	0.668713
160	0.669157
161	0.669619
162	0.669952
163	0.670358
164	0.670728
165	0.671024
166	0.671468
167	0.671985
168	0.672374
169	0.672725
170	0.673150
171	0.673594
172	0.674167
173	0.674574
174	0.674999
175	0.675406
176	0.675702
177	0.676164
178	0.676478
179	0.676885
180	0.677125
181	0.677532
182	0.677809
183	0.678272
184	0.678734
185	0.679048
186	0.679399
187	0.679899
188	0.680268
189	0.680583
190	0.680860
191	0.681211
192	0.681600
193	0.681914
194	0.682339
195	0.682728
196	0.683023
197	0.683375
198	0.683781
199	0.684244
200	0.684632
201	0.685039
202	0.685390
203	0.685649
204	0.685945
205	0.686240
206	0.686555
207	0.686758
208	0.687109
209	0.687368
210	0.687701
211	0.687923
212	0.688367
213	0.688699
214	0.688958
215	0.689254
216	0.689624
217	0.689883
218	0.690382
219	0.690733
220	0.690955
221	0.691177
222	0.691436
223	0.691806
224	0.692101
225	0.692379
226	0.692749
227	0.693026
228	0.693248
229	0.693507
230	0.693895
231	0.694172
232	0.694579
233	0.694801
234	0.695004
235	0.695245
236	0.695596
237	0.695910
238	0.696225
239	0.696465
240	0.696724
241	0.696909
242	0.697223
243	0.697519
244	0.697704
245	0.697907
246	0.698184
247	0.698499
248	0.698776
249	0.698998
250	0.699238
251	0.699368
252	0.699553
253	0.699793
254	0.700052
255	0.700237
256	0.700459
257	0.700717
258	0.700995
259	0.701161
260	0.701309
261	0.701568
262	0.701716
263	0.701975
264	0.702141
265	0.702474
266	0.702733
267	0.702992
268	0.703195
269	0.703472
270	0.703750
271	0.703897
272	0.704101
273	0.704360
274	0.704600
275	0.704914
276	0.705136
277	0.705395
278	0.705598
279	0.705728
280	0.706024
281	0.706227
282	0.706504
283	0.706634
284	0.706856
285	0.707022
286	0.707263
287	0.707466
288	0.707558
289	0.707725
290	0.707910
291	0.708205
292	0.708316
293	0.708594
294	0.708797
295	0.709037
296	0.709278
297	0.709481
298	0.709629
299	0.709796
300	0.709962
301	0.710073
302	0.710350
303	0.710498
304	0.710683
305	0.710905
306	0.711090
307	0.711238
308	0.711312
309	0.711478
310	0.711737
311	0.711922
312	0.712051
313	0.712199
314	0.712329
315	0.712661
316	0.712902
317	0.713142
318	0.713271
319	0.713456
320	0.713586
321	0.713845
322	0.714177
323	0.714381
324	0.714547
325	0.714640
326	0.714788
327	0.714935
328	0.715176
329	0.715361
330	0.715472
331	0.715638
332	0.715749
333	0.715878
334	0.716045
335	0.716267
336	0.716415
337	0.716563
338	0.716784
339	0.716932
340	0.717154
341	0.717302
342	0.717431
343	0.717542
344	0.717672
345	0.717838
346	0.717986
347	0.718134
348	0.718300
349	0.718448
350	0.718615
351	0.718763
352	0.718911
353	0.719151
354	0.719299
355	0.719428
356	0.719595
357	0.719669
358	0.719798
359	0.719965
360	0.720168
361	0.720297
362	0.720464
363	0.720612
364	0.720741
365	0.720870
366	0.720981
367	0.721166
368	0.721314
369	0.721481
370	0.721684
371	0.721906
372	0.721998
373	0.722165
374	0.722424
375	0.722590
376	0.722775
377	0.722923
378	0.722997
379	0.723237
380	0.723440
381	0.723570
382	0.723699
383	0.723810
384	0.723995
385	0.724198
386	0.724291
387	0.724494
388	0.724735
389	0.724809
390	0.724957
391	0.725067
392	0.725178
393	0.725326
394	0.725511
395	0.725789
396	0.725844
397	0.725973
398	0.726121
399	0.726269
400	0.726454
401	0.726658
402	0.726768
403	0.726861
404	0.727009
405	0.727175
406	0.727342
407	0.727453
408	0.727674
409	0.727841
410	0.728044
411	0.728192
412	0.728285
413	0.728377
414	0.728580
415	0.728839
416	0.728987
417	0.729098
418	0.729265
419	0.729412
420	0.729505
421	0.729560
422	0.729727
423	0.729801
424	0.729875
425	0.730115
426	0.730189
427	0.730374
428	0.730596
429	0.730688
430	0.730781
431	0.730947
432	0.731021
433	0.731150
434	0.731298
435	0.731354
436	0.731446
437	0.731576
438	0.731724
439	0.731853
440	0.732001
441	0.732075
442	0.732204
443	0.732297
444	0.732389
445	0.732648
446	0.732759
447	0.732925
448	0.733036
449	0.733110
450	0.733203
451	0.733295
452	0.733369
453	0.733462
454	0.733628
455	0.733776
456	0.733924
457	0.734127
458	0.734312
459	0.734423
460	0.734515
461	0.734700
462	0.734793
463	0.734885
464	0.735033
465	0.735126
466	0.735218
467	0.735458
468	0.735514
469	0.735643
470	0.735810
471	0.735939
472	0.735995
473	0.736068
474	0.736272
475	0.736401
476	0.736512
477	0.736660
478	0.736808
479	0.736974
480	0.737159
481	0.737289
482	0.737492
483	0.737566
484	0.737769
485	0.737899
486	0.738010
487	0.738084
488	0.738139
489	0.738306
490	0.738454
491	0.738546
492	0.738694
493	0.738786
494	0.738916
495	0.738990
496	0.739101
497	0.739193
498	0.739304
499	0.739341
500	0.739397
501	0.739470
502	0.739600
503	0.739692
504	0.739785
505	0.739840
506	0.739988
507	0.740136
508	0.740266
509	0.740413
510	0.740469
511	0.740543
512	0.740580
513	0.740746
514	0.740876
515	0.741005
516	0.741116
517	0.741208
518	0.741356
519	0.741467
520	0.741560
521	0.741615
522	0.741671
523	0.741782
524	0.741893
525	0.742077
526	0.742207
527	0.742318
528	0.742558
529	0.742595
530	0.742743
531	0.742835
532	0.743002
533	0.743113
534	0.743279
535	0.743372
536	0.743501
537	0.743557
538	0.743686
539	0.743778
540	0.743834
541	0.744074
542	0.744204
543	0.744315
544	0.744463
545	0.744536
546	0.744555
547	0.744703
548	0.744758
549	0.744906
550	0.745054
551	0.745147
552	0.745276
553	0.745442
554	0.745535
555	0.745646
556	0.745794
557	0.745886
558	0.745960
559	0.746053
560	0.746145
561	0.746182
562	0.746311
563	0.746422
564	0.746515
565	0.746681
566	0.746829
567	0.746903
568	0.746959
569	0.747051
570	0.747143
571	0.747236
572	0.747365
573	0.747458
574	0.747550
575	0.747643
576	0.747717
577	0.747754
578	0.747809
579	0.747938
580	0.748086
581	0.748142
582	0.748216
583	0.748271
584	0.748401
585	0.748456
586	0.748604
587	0.748678
588	0.748752
589	0.748844
590	0.748918
591	0.749048
592	0.749159
593	0.749196
594	0.749325
595	0.749418
596	0.749566
597	0.749713
598	0.749843
599	0.749954
600	0.750009
601	0.750065
602	0.750102
603	0.750157
604	0.750268
605	0.750361
606	0.750416
607	0.750508
608	0.750564
609	0.750656
610	0.750712
611	0.750749
612	0.750823
613	0.750878
614	0.750952
615	0.751063
616	0.751174
617	0.751248
618	0.751359
619	0.751396
620	0.751414
621	0.751451
622	0.751507
623	0.751599
624	0.751729
625	0.751784
626	0.751840
627	0.751951
629	0.752043
630	0.752135
631	0.752265
632	0.752413
633	0.752468
634	0.752505
635	0.752524
636	0.752561
637	0.752727
638	0.752783
639	0.752857
640	0.752986
641	0.753041
642	0.753097
643	0.753189
644	0.753263
645	0.753356
646	0.753430
647	0.753541
648	0.753633
649	0.753726
650	0.753744
651	0.753836
652	0.753892
653	0.754040
654	0.754114
655	0.754243
656	0.754280
657	0.754410
658	0.754447
659	0.754521
660	0.754632
661	0.754742
662	0.754779
663	0.754835
664	0.754853
665	0.754927
666	0.754983
667	0.755168
668	0.755260
669	0.755334
670	0.755464
671	0.755537
672	0.755593
673	0.755685
674	0.755759
675	0.755833
676	0.755907
677	0.756000
678	0.756074
679	0.756166
680	0.756203
681	0.756277
682	0.756333
683	0.756425
684	0.756554
685	0.756628
686	0.756739
687	0.756776
688	0.756887
689	0.756961
690	0.757072
691	0.757109
692	0.757146
693	0.757201
694	0.757257
695	0.757349
696	0.757497
697	0.757534
698	0.757571
699	0.757608
700	0.757664
701	0.757701
702	0.757793
703	0.757849
704	0.757923
705	0.757997
706	0.758052
707	0.758163
708	0.758218
710	0.758274
711	0.758348
712	0.758422
713	0.758477
714	0.758551
715	0.758644
716	0.758681
717	0.758773
718	0.758847
719	0.758921
720	0.758976
721	0.759050
722	0.759124
723	0.759180
724	0.759198
725	0.759272
726	0.759365
727	0.759457
728	0.759531
729	0.759642
730	0.759734
731	0.759808
732	0.759919
733	0.760012
734	0.760049
735	0.760104
736	0.760160
737	0.760234
738	0.760271
739	0.760345
740	0.760382
741	0.760437
742	0.760493
743	0.760567
744	0.760603
745	0.760696
746	0.760844
747	0.760955
748	0.760973
749	0.761010
750	0.761047
751	0.761103
752	0.761121
753	0.761177
754	0.761288
755	0.761306
757	0.761380
758	0.761454
760	0.761509
761	0.761565
762	0.761602
763	0.761639
764	0.761676
765	0.761750
766	0.761824
767	0.761898
768	0.761972
769	0.762027
770	0.762101
771	0.762157
772	0.762231
773	0.762286
774	0.762323
775	0.762434
776	0.762489
777	0.762545
779	0.762637
780	0.762674
781	0.762748
782	0.762785
783	0.762804
784	0.762859
785	0.762952
786	0.763026
787	0.763118
788	0.763247
789	0.763395
790	0.763432
791	0.763525
792	0.763543
793	0.763599
794	0.763673
795	0.763691
796	0.763728
797	0.763839
798	0.763950
799	0.763968
800	0.764061
801	0.764135
802	0.764246
803	0.764357
804	0.764431
805	0.764486
806	0.764523
807	0.764579
808	0.764634
809	0.764708
810	0.764782
811	0.764837
812	0.764930
813	0.765004
814	0.765059
815	0.765078
816	0.765170
817	0.765263
818	0.765337
819	0.765374
820	0.765448
821	0.765503
822	0.765596
823	0.765633
824	0.765669
825	0.765688
826	0.765780
827	0.765891
828	0.765965
829	0.766002
830	0.766058
831	0.766076
832	0.766095
833	0.766113
834	0.766169
835	0.766187
837	0.766243
838	0.766354
839	0.766428
840	0.766501
841	0.766557
842	0.766631
843	0.766686
844	0.766705
845	0.766797
846	0.766871
847	0.766890
848	0.766964
849	0.767038
850	0.767093
851	0.767149
852	0.767186
853	0.767278
854	0.767334
855	0.767389
856	0.767444
857	0.767518
858	0.767555
859	0.767648
860	0.767722
861	0.767740
862	0.767796
863	0.767814
864	0.767870
865	0.767925
867	0.767944
868	0.767999
869	0.768073
870	0.768129
871	0.768147
872	0.768202
873	0.768239
874	0.768295
875	0.768369
876	0.768480
877	0.768517
878	0.768554
879	0.768628
880	0.768683
881	0.768739
882	0.768794
883	0.768831
884	0.768887
885	0.768961
886	0.768998
887	0.769071
888	0.769256
889	0.769293
890	0.769349
891	0.769367
892	0.769404
893	0.769423
894	0.769460
895	0.769552
896	0.769626
897	0.769663
899	0.769682
900	0.769756
901	0.769774
902	0.769793
903	0.769830
904	0.769922
905	0.770033
906	0.770051
908	0.770107
909	0.770144
910	0.770181
911	0.770199
912	0.770292
913	0.770347
914	0.770403
915	0.770477
916	0.770588
917	0.770606
918	0.770625
919	0.770717
920	0.770754
921	0.770809
922	0.770828
923	0.770939
924	0.771013
925	0.771087
927	0.771179
928	0.771253
929	0.771364
930	0.771420
931	0.771549
932	0.771586
933	0.771660
934	0.771715
935	0.771789
936	0.771808
937	0.771845
938	0.771882
939	0.771919
940	0.771937
941	0.772048
942	0.772122
943	0.772159
944	0.772196
945	0.772233
946	0.772307
947	0.772400
948	0.772510
949	0.772529
950	0.772547
952	0.772584
953	0.772658
954	0.772732
955	0.772751
958	0.772788
960	0.772806
961	0.772825
962	0.772880
963	0.772917
964	0.772973
965	0.773084
966	0.773121
967	0.773158
968	0.773213
969	0.773268
970	0.773305
971	0.773342
972	0.773416
973	0.773453
974	0.773490
975	0.773620
976	0.773675
977	0.773712
978	0.773786
979	0.773860
980	0.773916
981	0.774027
982	0.774119
983	0.774137
984	0.774156
985	0.774211
986	0.774304
987	0.774341
988	0.774415
989	0.774452
990	0.774489
991	0.774507
992	0.774526
993	0.774581
994	0.774600
996	0.774674
997	0.774692
998	0.774711
999	0.774729
1000	0.774748
1001	0.774822
1002	0.774877
1003	0.774951
1004	0.775025
1005	0.775062
1006	0.775099
1007	0.775136
1008	0.775154
1009	0.775173
1010	0.775228
1011	0.775247
1012	0.775265
1013	0.775321
1015	0.775339
1016	0.775395
1017	0.775469
1018	0.775524
1019	0.775561
1020	0.775635
1021	0.775691
1022	0.775728
1023	0.775783
1024	0.775820
1025	0.775838
1026	0.775894
1028	0.775949
1029	0.775968
1030	0.775986
1031	0.776060
1032	0.776134
1033	0.776153
1034	0.776227
1035	0.776319
1036	0.776375
1037	0.776412
1038	0.776430
1039	0.776523
1040	0.776597
1041	0.776634
1042	0.776689
1043	0.776744
1044	0.776818
1045	0.776837
1046	0.776892
1047	0.776966
1048	0.776985
1049	0.777003
1050	0.777077
1051	0.777096
1052	0.777207
1053	0.777244
1054	0.777281
1055	0.777318
1056	0.777373
1057	0.777429
1058	0.777484
1059	0.777521
1060	0.777539
1061	0.777576
1062	0.777632
1063	0.777706
1064	0.777780
1065	0.777798
1066	0.777817
1067	0.777872
1068	0.777891
1069	0.777946
1070	0.778039
1071	0.778076
1072	0.778094
1073	0.778131
1074	0.778187
1075	0.778224
1076	0.778242
1077	0.778316
1078	0.778353
1080	0.778371
1081	0.778445
1082	0.778519
1083	0.778575
1084	0.778630
1085	0.778649
1086	0.778667
1087	0.778704
1088	0.778723
1089	0.778778
1090	0.778834
1091	0.778852
1092	0.778926
1093	0.779000
1094	0.779074
1096	0.779093
1098	0.779167
1099	0.779222
1100	0.779240
1101	0.779277
1102	0.779314
1103	0.779425
1104	0.779462
1105	0.779536
1106	0.779610
1107	0.779666
1108	0.779684
1110	0.779740
1111	0.779777
1112	0.779832
1113	0.779851
1114	0.779869
1115	0.779888
1116	0.779943
1117	0.779962
1118	0.780054
1120	0.780091
1121	0.780128
1122	0.780220
1123	0.780276
1124	0.780350
1125	0.780405
1126	0.780461
1127	0.780479
1128	0.780516
1129	0.780572
1130	0.780646
1131	0.780757
1132	0.780794
1134	0.780868
1135	0.780960
1136	0.781015
1137	0.781034
1138	0.781052
1139	0.781108
1140	0.781163
1141	0.781311
1142	0.781422
1143	0.781441
1144	0.781459
1145	0.781478
1146	0.781515
1147	0.781552
1148	0.781626
1149	0.781644
1150	0.781681
1151	0.781773
1152	0.781829
1153	0.781847
1154	0.781884
1155	0.781903
1156	0.781921
1157	0.781977
1158	0.781995
1159	0.782051
1160	0.782162
1161	0.782310
1162	0.782384
1163	0.782421
1164	0.782476
1165	0.782495
1166	0.782587
1167	0.782605
1168	0.782642
1169	0.782679
1170	0.782716
1171	0.782753
1172	0.782772
1173	0.782827
1174	0.782846
1175	0.782883
1176	0.782920
1177	0.782975
1179	0.783012
1180	0.783068
1181	0.783123
1184	0.783179
1185	0.783216
1187	0.783234
1188	0.783290
1189	0.783345
1191	0.783364
1193	0.783401
1194	0.783456
1195	0.783511
1196	0.783548
1197	0.783585
1198	0.783604
1199	0.783622
1202	0.783659
1203	0.783678
1204	0.783770
1205	0.783844
1206	0.783881
1207	0.783955
1208	0.783992
1209	0.784048
1211	0.784085
1212	0.784122
1213	0.784159
1214	0.784196
1215	0.784214
1216	0.784233
1217	0.784288
1218	0.784306
1219	0.784380
1220	0.784417
1221	0.784491
1222	0.784510
1223	0.784584
1224	0.784658
1225	0.784750
1226	0.784787
1227	0.784824
1228	0.784861
1229	0.784898
1230	0.784954
1231	0.784991
1233	0.785028
1234	0.785046
1236	0.785102
1237	0.785194
1238	0.785212
1239	0.785231
1240	0.785286
1243	0.785342
1244	0.785379
1245	0.785490
1246	0.785508
1247	0.785527
1248	0.785564
1249	0.785601
1250	0.785638
1251	0.785656
1254	0.785693
1255	0.785749
1256	0.785767
1257	0.785823
1258	0.785860
1260	0.785897
1261	0.785915
1262	0.785952
1263	0.786044
1265	0.786100
1266	0.786155
1267	0.786174
1268	0.786229
1269	0.786248
1270	0.786285
1271	0.786303
1272	0.786322
1273	0.786340
1274	0.786396
1275	0.786433
1276	0.786544
1277	0.786581
1279	0.786599
1280	0.786655
1281	0.786673
1282	0.786729
1283	0.786802
1284	0.786821
1285	0.786858
1286	0.786913
1287	0.786969
1288	0.787024
1290	0.787061
1291	0.787117
1292	0.787135
1293	0.787172
1294	0.787209
1296	0.787228
1297	0.787265
1298	0.787320
1299	0.787357
1300	0.787413
1301	0.787468
1302	0.787542
1303	0.787579
1304	0.787598
1305	0.787616
1306	0.787653
1307	0.787708
1308	0.787727
1309	0.787764
1310	0.787819
1311	0.787856
1315	0.787912
1316	0.787949
1317	0.788023
1319	0.788041
1320	0.788078
1321	0.788097
1322	0.788134
1323	0.788171
1325	0.788189
1326	0.788208
1327	0.788263
1328	0.788282
1329	0.788319
1330	0.788393
1331	0.788448
1332	0.788540
1333	0.788559
1334	0.788614
1335	0.788688
1336	0.788762
1337	0.788781
1338	0.788818
1339	0.788836
1340	0.788873
1342	0.788892
1343	0.788910
1344	0.788929
1345	0.788966
1346	0.789003
1347	0.789021
1348	0.789040
1349	0.789114
1351	0.789132
1352	0.789169
1354	0.789188
1355	0.789206
1357	0.789280
1358	0.789317
1360	0.789336
1361	0.789372
1362	0.789409
1365	0.789428
1366	0.789446
1367	0.789483
1368	0.789520
1370	0.789557
1371	0.789613
1372	0.789650
1373	0.789668
1374	0.789687
1375	0.789724
1376	0.789742
1379	0.789761
1380	0.789853
1381	0.789890
1382	0.789927
1383	0.789964
1384	0.790001
1385	0.790038
1386	0.790112
1387	0.790149
1388	0.790168
1389	0.790186
1391	0.790204
1392	0.790223
1393	0.790241
1395	0.790260
1396	0.790297
1397	0.790334
1398	0.790389
1399	0.790408
1401	0.790500
1402	0.790611
1404	0.790630
1405	0.790648
1406	0.790704
1407	0.790741
1408	0.790759
1409	0.790778
1410	0.790815
1412	0.790889
1413	0.790963
1415	0.790981
1417	0.791129
1418	0.791166
1419	0.791203
1421	0.791221
1422	0.791258
1424	0.791295
1426	0.791351
1427	0.791388
1428	0.791480
1429	0.791517
1430	0.791554
1431	0.791591
1434	0.791647
1435	0.791739
1436	0.791795
1437	0.791813
1438	0.791832
1439	0.791869
1440	0.791887
1441	0.791905
1443	0.791924
1444	0.791961
1446	0.791979
1447	0.792016
1448	0.792053
1449	0.792109
1450	0.792164
1452	0.792183
1454	0.792238
1455	0.792257
1456	0.792275
1458	0.792294
1461	0.792331
1462	0.792349
1463	0.792405
1464	0.792479
1465	0.792516
1466	0.792627
1468	0.792664
1469	0.792701
1471	0.792756
1474	0.792774
1475	0.792811
1476	0.792885
1478	0.792904
1479	0.792959
1480	0.792978
1481	0.792996
1482	0.793033
1483	0.793070
1486	0.793107
1487	0.793126
1488	0.793181
1489	0.793218
1490	0.793237
1491	0.793292
1492	0.793348
1493	0.793366
1494	0.793385
1496	0.793440
1497	0.793477
1498	0.793496
1499	0.793514
1501	0.793551
1502	0.793588
1503	0.793643
1504	0.793699
1505	0.793717
1508	0.793736
1510	0.793791
1513	0.793828
1514	0.793847
1515	0.793884
1516	0.793939
1517	0.793958
1518	0.793995
1520	0.794032
1521	0.794050
1522	0.794069
1523	0.794087
1524	0.794124
1525	0.794161
1526	0.794217
1527	0.794235
1528	0.794309
1529	0.794328
1530	0.794346
1531	0.794365
1532	0.794420
1533	0.794438
1534	0.794457
1535	0.794531
1536	0.794549
1538	0.794568
1541	0.794605
1542	0.794623
1544	0.794660
1545	0.794679
1547	0.794697
1548	0.794734
1549	0.794790
1550	0.794827
1551	0.794845
1553	0.794864
1554	0.794901
1556	0.794938
1557	0.794956
1559	0.795030
1560	0.795049
1561	0.795123
1562	0.795178
1564	0.795215
1567	0.795270
1568	0.795289
1570	0.795307
1571	0.795344
1572	0.795363
1573	0.795400
1574	0.795418
1575	0.795437
1576	0.795455
1578	0.795474
1579	0.795492
1580	0.795566
1581	0.795585
1582	0.795622
1585	0.795659
1586	0.795677
1587	0.795714
1588	0.795733
1589	0.795788
1591	0.795807
1592	0.795862
1593	0.795899
1594	0.795955
1595	0.795992
1596	0.796047
1597	0.796066
1598	0.796103
1600	0.796176
1601	0.796213
1602	0.796232
1603	0.796269
1604	0.796287
1605	0.796306
1606	0.796324
1607	0.796361
1608	0.796380
1609	0.796472
1611	0.796509
1612	0.796528
1613	0.796546
1614	0.796602
