key	frequency
0	0.224401
1	0.362248
2	0.463457
3	0.529334
4	0.575907
5	0.610102
6	0.638345
7	0.660944
8	0.680033
9	0.696656
10	0.710600
11	0.722931
12	0.733744
13	0.743823
14	0.751530
15	0.759687
16	0.766777
17	0.773417
18	0.779867
19	0.785155
20	0.790467
21	0.794949
22	0.799028
23	0.802988
24	0.806664
25	0.810979
26	0.814252
27	0.817738
28	0.820631
29	0.823571
30	0.826773
31	0.829903
32	0.832748
33	0.835309
34	0.837515
35	0.839791
36	0.842756
37	0.844937
38	0.846905
39	0.849229
40	0.850913
41	0.852454
42	0.854162
43	0.856201
44	0.858122
45	0.859592
46	0.861110
47	0.862604
48	0.863647
49	0.865378
50	0.866635
51	0.867987
52	0.869362
53	0.870477
54	0.871971
55	0.873038
56	0.873986
57	0.874959
58	0.876049
59	0.877306
60	0.878326
61	0.879346
62	0.880247
63	0.881314
64	0.882239
65	0.883258
66	0.883922
67	0.884918
68	0.885867
69	0.886815
70	0.887622
71	0.888309
72	0.889021
73	0.889519
74	0.890277
75	0.890965
76	0.891677
77	0.892412
78	0.893218
79	0.893811
80	0.894427
81	0.895091
82	0.895898
83	0.896562
84	0.897392
85	0.898055
86	0.898625
87	0.899289
88	0.899858
89	0.900379
90	0.901091
91	0.901779
92	0.902419
93	0.903083
94	0.903581
95	0.904079
96	0.904600
97	0.904980
98	0.905525
99	0.906000
100	0.906545
101	0.907209
102	0.907849
103	0.908252
104	0.908727
105	0.909177
106	0.909794
107	0.910244
108	0.910719
109	0.911240
110	0.911572
111	0.912046
112	0.912355
113	0.912734
114	0.913185
115	0.913659
116	0.914204
117	0.914631
118	0.915034
119	0.915343
120	0.915675
121	0.916007
122	0.916362
123	0.916671
124	0.916955
125	0.917263
126	0.917619
127	0.917999
128	0.918188
129	0.918591
130	0.918829
131	0.919113
132	0.919540
133	0.919753
134	0.919991
135	0.920204
136	0.920488
137	0.920892
138	0.921105
139	0.921318
140	0.921579
141	0.921722
142	0.922125
143	0.922504
144	0.922812
145	0.923263
146	0.923785
147	0.924046
148	0.924283
149	0.924496
150	0.924852
151	0.925136
152	0.925350
153	0.925587
154	0.925895
155	0.926275
156	0.926417
157	0.926725
158	0.926939
159	0.927081
160	0.927460
161	0.927769
162	0.928053
163	0.928290
164	0.928433
165	0.928575
166	0.928931
167	0.929025
168	0.929310
169	0.929523
170	0.929689
171	0.929998
172	0.930235
173	0.930448
174	0.930590
175	0.930946
176	0.931065
177	0.931349
178	0.931444
179	0.931681
180	0.931847
181	0.931942
182	0.932203
183	0.932393
184	0.932582
185	0.932867
186	0.933057
187	0.933199
188	0.933365
189	0.933578
190	0.933721
191	0.934029
192	0.934124
193	0.934219
194	0.934432
195	0.934574
196	0.934693
197	0.934906
198	0.934954
199	0.935309
200	0.935523
201	0.935665
202	0.935831
203	0.936021
204	0.936234
205	0.936424
206	0.936614
207	0.936780
208	0.936993
209	0.937159
210	0.937183
211	0.937278
212	0.937396
213	0.937515
214	0.937562
215	0.937705
216	0.937823
217	0.938037
218	0.938203
219	0.938345
220	0.938463
221	0.938890
222	0.939056
223	0.939175
224	0.939270
225	0.939412
226	0.939578
227	0.939625
228	0.939791
229	0.939910
230	0.939981
231	0.940028
232	0.940147
233	0.940266
234	0.940360
235	0.940503
236	0.940740
237	0.940811
238	0.940835
239	0.940906
240	0.940977
241	0.941024
242	0.941143
243	0.941309
244	0.941380
245	0.941428
246	0.941546
247	0.941594
248	0.941736
249	0.941902
250	0.942020
251	0.942139
252	0.942258
253	0.942376
254	0.942471
255	0.942566
256	0.942756
257	0.942779
258	0.942874
259	0.943016
260	0.943135
261	0.943253
262	0.943325
263	0.943491
264	0.943609
265	0.943775
266	0.943846
267	0.944012
268	0.944083
269	0.944178
270	0.944297
271	0.944344
272	0.944463
273	0.944558
274	0.944581
275	0.944724
276	0.944747
277	0.944795
278	0.944866
279	0.944937
280	0.945103
281	0.945245
283	0.945317
284	0.945388
285	0.945554
286	0.945625
287	0.945696
288	0.945767
289	0.945815
290	0.945862
291	0.945886
292	0.945933
293	0.946123
294	0.946194
295	0.946313
296	0.946407
297	0.946479
298	0.946502
300	0.946573
301	0.946621
303	0.946668
304	0.946834
305	0.946882
306	0.946929
307	0.947048
308	0.947190
309	0.947332
311	0.947403
312	0.947427
313	0.947475
314	0.947546
315	0.947641
316	0.947735
317	0.947759
318	0.947878
319	0.947925
320	0.947949
321	0.948020
322	0.948091
323	0.948115
324	0.948162
325	0.948210
326	0.948304
327	0.948328
328	0.948423
329	0.948494
330	0.948565
331	0.948708
332	0.948779
333	0.948826
334	0.948945
335	0.949016
336	0.949087
337	0.949182
338	0.949253
339	0.949277
340	0.949348
341	0.949395
342	0.949466
343	0.949585
344	0.949656
345	0.949727
346	0.949751
347	0.949798
348	0.949941
349	0.950059
350	0.950083
351	0.950154
352	0.950225
353	0.950296
354	0.950344
355	0.950415
356	0.950557
357	0.950628
359	0.950652
360	0.950700
361	0.950747
362	0.950866
363	0.950889
364	0.950960
365	0.951008
366	0.951174
367	0.951269
368	0.951292
369	0.951364
370	0.951458
371	0.951530
372	0.951577
373	0.951601
374	0.951648
375	0.951672
376	0.951767
377	0.951790
378	0.951814
379	0.951885
380	0.951980
381	0.952122
382	0.952194
383	0.952217
384	0.952288
385	0.952336
386	0.952359
387	0.952478
388	0.952525
389	0.952549
390	0.952620
391	0.952668
392	0.952715
393	0.952739
394	0.952786
395	0.952857
396	0.952905
397	0.952929
399	0.953047
400	0.953118
401	0.953166
402	0.953189
403	0.953237
404	0.953261
405	0.953284
406	0.953379
407	0.953474
408	0.953569
409	0.953593
410	0.953616
412	0.953664
414	0.953687
415	0.953759
416	0.953782
417	0.953877
419	0.953901
420	0.953925
421	0.953948
422	0.953996
423	0.954019
424	0.954114
425	0.954185
426	0.954209
427	0.954257
428	0.954328
429	0.954375
430	0.954446
431	0.954612
432	0.954683
433	0.954731
434	0.954755
435	0.954849
436	0.954897
437	0.955039
438	0.955063
439	0.955087
441	0.955110
442	0.955134
443	0.955181
444	0.955205
445	0.955229
446	0.955253
447	0.955276
448	0.955347
449	0.955419
450	0.955490
451	0.955537
452	0.955585
453	0.955656
454	0.955727
455	0.955822
457	0.955893
458	0.955964
459	0.956011
460	0.956106
461	0.956249
462	0.956320
463	0.956343
464	0.956367
465	0.956391
467	0.956415
468	0.956438
469	0.956533
470	0.956604
472	0.956628
473	0.956652
475	0.956723
476	0.956818
477	0.956889
478	0.957007
479	0.957078
480	0.957197
481	0.957244
482	0.957268
483	0.957316
485	0.957339
486	0.957482
487	0.957576
489	0.957600
491	0.957648
492	0.957695
494	0.957742
495	0.957766
496	0.957837
497	0.957908
498	0.957956
500	0.957980
502	0.958003
503	0.958051
504	0.958098
505	0.958146
507	0.958169
509	0.958193
510	0.958217
511	0.958264
512	0.958288
513	0.958359
514	0.958430
515	0.958478
517	0.958525
518	0.958620
519	0.958667
520	0.958715
522	0.958738
523	0.958786
524	0.958810
525	0.958881
528	0.958928
530	0.958952
531	0.959023
532	0.959047
533	0.959070
536	0.959142
538	0.959213
539	0.959284
540	0.959308
541	0.959355
542	0.959402
543	0.959474
544	0.959497
545	0.959592
546	0.959663
547	0.959758
548	0.959829
549	0.959877
550	0.959948
551	0.959972
552	0.959995
553	0.960019
555	0.960043
556	0.960090
557	0.960161
559	0.960209
560	0.960256
561	0.960280
562	0.960351
564	0.960398
567	0.960422
568	0.960470
569	0.960493
570	0.960541
571	0.960564
573	0.960588
574	0.960612
575	0.960636
576	0.960778
577	0.960825
578	0.960896
582	0.960920
583	0.961015
584	0.961039
585	0.961134
586	0.961157
587	0.961205
588	0.961228
589	0.961252
590	0.961323
591	0.961371
592	0.961442
593	0.961465
594	0.961489
595	0.961513
596	0.961537
597	0.961560
599	0.961655
600	0.961679
602	0.961726
603	0.961797
604	0.961892
605	0.961940
607	0.961987
608	0.962035
611	0.962082
612	0.962106
613	0.962153
614	0.962177
616	0.962224
617	0.962248
620	0.962272
622	0.962319
623	0.962367
624	0.962414
625	0.962438
626	0.962509
627	0.962533
628	0.962556
630	0.962627
632	0.962699
633	0.962746
634	0.962770
635	0.962817
636	0.962841
637	0.962865
638	0.962888
639	0.962912
640	0.962936
641	0.962959
642	0.962983
643	0.963078
644	0.963149
648	0.963197
651	0.963220
652	0.963244
653	0.963315
654	0.963339
655	0.963363
656	0.963386
657	0.963457
659	0.963481
660	0.963505
661	0.963529
662	0.963576
663	0.963600
664	0.963623
665	0.963671
666	0.963742
668	0.963789
669	0.963861
670	0.963884
671	0.963932
672	0.964003
674	0.964027
675	0.964050
676	0.964074
678	0.964121
679	0.964240
680	0.964264
681	0.964287
682	0.964311
685	0.964335
686	0.964382
690	0.964430
691	0.964477
692	0.964525
693	0.964548
694	0.964572
696	0.964596
698	0.964667
701	0.964714
703	0.964762
704	0.964785
705	0.964833
708	0.964880
709	0.964928
710	0.964951
711	0.964999
712	0.965094
713	0.965165
714	0.965189
715	0.965212
717	0.965236
718	0.965260
719	0.965283
722	0.965331
724	0.965378
726	0.965426
727	0.965449
728	0.965497
729	0.965544
730	0.965568
734	0.965592
735	0.965639
736	0.965663
737	0.965687
739	0.965734
740	0.965758
741	0.965805
742	0.965829
743	0.965853
744	0.965900
745	0.965924
746	0.965947
750	0.965971
752	0.965995
753	0.966018
755	0.966066
760	0.966113
761	0.966161
763	0.966184
764	0.966208
766	0.966232
768	0.966256
770	0.966279
771	0.966303
774	0.966327
780	0.966374
782	0.966398
783	0.966445
784	0.966469
786	0.966516
789	0.966564
790	0.966588
791	0.966611
793	0.966635
794	0.966659
797	0.966682
798	0.966730
803	0.966754
804	0.966801
806	0.966825
808	0.966872
811	0.966920
814	0.966967
815	0.966991
816	0.967014
817	0.967038
819	0.967062
821	0.967086
822	0.967109
823	0.967133
824	0.967180
826	0.967204
830	0.967252
831	0.967299
832	0.967323
833	0.967346
834	0.967394
835	0.967418
836	0.967465
839	0.967489
842	0.967536
843	0.967584
844	0.967607
850	0.967678
851	0.967702
853	0.967773
854	0.967797
855	0.967821
856	0.967868
857	0.967892
858	0.967939
859	0.967963
861	0.968010
862	0.968034
863	0.968058
867	0.968105
869	0.968176
870	0.968224
874	0.968271
877	0.968319
879	0.968342
880	0.968390
881	0.968414
883	0.968437
884	0.968461
885	0.968508
887	0.968532
889	0.968556
890	0.968580
891	0.968627
892	0.968651
893	0.968674
894	0.968722
896	0.968769
898	0.968817
899	0.968912
900	0.968935
902	0.968959
904	0.968983
905	0.969030
906	0.969054
907	0.969101
908	0.969149
910	0.969196
911	0.969220
916	0.969244
925	0.969291
928	0.969315
929	0.969338
933	0.969362
934	0.969386
935	0.969433
936	0.969504
941	0.969528
942	0.969552
943	0.969576
945	0.969599
946	0.969647
947	0.969694
948	0.969718
950	0.969742
951	0.969765
952	0.969789
953	0.969884
955	0.969908
956	0.969931
957	0.969955
958	0.970050
960	0.970074
973	0.970145
975	0.970168
976	0.970216
980	0.970240
983	0.970263
988	0.970287
990	0.970334
992	0.970358
995	0.970382
996	0.970429
998	0.970500
999	0.970548
1000	0.970571
1001	0.970595
1002	0.970666
1003	0.970690
1006	0.970714
1007	0.970761
1010	0.970785
1011	0.970809
1013	0.970832
1016	0.970856
1017	0.970880
1023	0.970903
1024	0.970927
1025	0.970951
1026	0.970998
1031	0.971022
1033	0.971046
1035	0.971069
1039	0.971093
1040	0.971141
1041	0.971164
1046	0.971188
1047	0.971212
1053	0.971283
1054	0.971378
1062	0.971425
1063	0.971473
1064	0.971520
1066	0.971567
1067	0.971591
1069	0.971639
1070	0.971662
1071	0.971686
1074	0.971733
1075	0.971757
1080	0.971781
1083	0.971805
1086	0.971828
1093	0.971852
1095	0.971899
1097	0.971923
1099	0.971947
1102	0.971971
1103	0.971994
1104	0.972042
1105	0.972089
1108	0.972113
1112	0.972137
1115	0.972160
1116	0.972208
1117	0.972255
1118	0.972279
1120	0.972303
1122	0.972326
1125	0.972350
1126	0.972374
1129	0.972421
1132	0.972445
1134	0.972469
1135	0.972492
1139	0.972516
1141	0.972587
1142	0.972611
1150	0.972635
1153	0.972682
1154	0.972706
1157	0.972753
1160	0.972801
1165	0.972824
1166	0.972872
1167	0.972895
1168	0.972919
1169	0.972943
1171	0.973014
1175	0.973061
1176	0.973085
1177	0.973109
1180	0.973133
1182	0.973156
1183	0.973180
1187	0.973204
1191	0.973227
1192	0.973251
1193	0.973275
1196	0.973299
1200	0.973322
1204	0.973370
1205	0.973393
1210	0.973441
1212	0.973488
1213	0.973512
1215	0.973536
1219	0.973559
1230	0.973607
1231	0.973631
1233	0.973654
1236	0.973678
1237	0.973702
1239	0.973749
1241	0.973773
1242	0.973797
1244	0.973868
1249	0.973891
1253	0.973915
1256	0.973939
1258	0.973986
1264	0.974010
1269	0.974034
1273	0.974057
1275	0.974105
1276	0.974129
1277	0.974176
1280	0.974223
1284	0.974247
1286	0.974271
1287	0.974342
1288	0.974366
1291	0.974389
1292	0.974413
1293	0.974437
1295	0.974461
1296	0.974484
1297	0.974508
1300	0.974532
1302	0.974555
1309	0.974603
1310	0.974627
1312	0.974650
1316	0.974674
1318	0.974698
1319	0.974721
1327	0.974745
1328	0.974769
1331	0.974793
1332	0.974840
1333	0.974864
1337	0.974887
1338	0.974911
1343	0.974935
1346	0.974959
1351	0.975006
1353	0.975030
1358	0.975053
1363	0.975101
1365	0.975124
1367	0.975172
1369	0.975196
1371	0.975219
1373	0.975243
1377	0.975267
1378	0.975290
1382	0.975314
1389	0.975338
1390	0.975362
1392	0.975385
1395	0.975409
1398	0.975433
1399	0.975456
1407	0.975480
1410	0.975504
1411	0.975528
1418	0.975551
1420	0.975575
1423	0.975599
1426	0.975622
1433	0.975646
1436	0.975670
1437	0.975694
1439	0.975717
1441	0.975741
1444	0.975765
1445	0.975788
1446	0.975812
1448	0.975836
1449	0.975860
1450	0.975883
1451	0.975907
1452	0.975954
1454	0.975978
1459	0.976002
1460	0.976026
1468	0.976049
1471	0.976073
1480	0.976097
1481	0.976144
1488	0.976168
1491	0.976192
1494	0.976215
1495	0.976239
1496	0.976263
1499	0.976286
1505	0.976310
1509	0.976334
1512	0.976358
1513	0.976381
1520	0.976405
1522	0.976429
1523	0.976452
1525	0.976476
1526	0.976500
1529	0.976524
1535	0.976547
1546	0.976595
1554	0.976618
1555	0.976666
1558	0.976690
1562	0.976737
1565	0.976761
1568	0.976784
1570	0.976808
1573	0.976832
1576	0.976856
1581	0.976903
1584	0.976927
1585	0.976950
1605	0.976998
1616	0.977045
1617	0.977069
1619	0.977093
1624	0.977116
1625	0.977140
1629	0.977164
1630	0.977188
1632	0.977211
1640	0.977259
1642	0.977282
1643	0.977330
1651	0.977354
1654	0.977401
1665	0.977448
1667	0.977472
1674	0.977496
1687	0.977520
1691	0.977543
1694	0.977567
1699	0.977591
1702	0.977614
1704	0.977638
1705	0.977662
1708	0.977686
1710	0.977709
1711	0.977733
1712	0.977757
1718	0.977780
1721	0.977804
1726	0.977828
1728	0.977852
1729	0.977875
1733	0.977899
1736	0.977923
1737	0.977970
1739	0.977994
1742	0.978018
1751	0.978041
1754	0.978065
1757	0.978089
1763	0.978112
1767	0.978136
1768	0.978160
1774	0.978184
1775	0.978207
1776	0.978231
1780	0.978255
1787	0.978278
1789	0.978302
1792	0.978326
1795	0.978350
1804	0.978373
1808	0.978397
1810	0.978421
1815	0.978468
1819	0.978492
1821	0.978539
1836	0.978563
1838	0.978587
1844	0.978610
1845	0.978634
1855	0.978658
1865	0.978682
1867	0.978729
1869	0.978753
1872	0.978776
1873	0.978800
1874	0.978824
1875	0.978848
1877	0.978871
1881	0.978895
1882	0.978919
1885	0.978942
1886	0.978966
1902	0.978990
1904	0.979014
1909	0.979037
1920	0.979085
1939	0.979108
1951	0.979132
1953	0.979156
1961	0.979180
1977	0.979203
1978	0.979227
1983	0.979251
1984	0.979298
1986	0.979322
1989	0.979346
1995	0.979393
1997	0.979417
1998	0.979440
2000	0.979464
2005	0.979488
2010	0.979535
2011	0.979559
2013	0.979583
2016	0.979606
2021	0.979630
2026	0.979654
2033	0.979677
2034	0.979701
2036	0.979725
2038	0.979749
2052	0.979772
2054	0.979796
2061	0.979820
2062	0.979843
2071	0.979867
2076	0.979891
2077	0.979915
2079	0.979938
2081	0.979962
2082	0.979986
2083	0.980009
2088	0.980033
2103	0.980057
2108	0.980081
2110	0.980104
2115	0.980128
2118	0.980152
2123	0.980175
2140	0.980199
2144	0.980247
2145	0.980270
2152	0.980294
2155	0.980318
2158	0.980341
2159	0.980365
2161	0.980389
2164	0.980413
2165	0.980436
2174	0.980460
2181	0.980484
2190	0.980507
2195	0.980531
2203	0.980555
2204	0.980579
2206	0.980626
2210	0.980650
2214	0.980673
2215	0.980697
2217	0.980721
2224	0.980745
2250	0.980768
2270	0.980792
2277	0.980816
2285	0.980839
2286	0.980863
2290	0.980887
2312	0.980911
2315	0.980934
2317	0.980958
2319	0.980982
2323	0.981053
2333	0.981077
2335	0.981100
2340	0.981124
2359	0.981171
2366	0.981195
2367	0.981219
2379	0.981243
2380	0.981290
2384	0.981337
2390	0.981361
2404	0.981385
2412	0.981409
2424	0.981432
2437	0.981456
2438	0.981480
2442	0.981503
2451	0.981527
2458	0.981551
2470	0.981575
2476	0.981598
2477	0.981622
2490	0.981646
2500	0.981669
2518	0.981693
2519	0.981717
2526	0.981741
2540	0.981764
2542	0.981788
2554	0.981812
2555	0.981835
2557	0.981859
2559	0.981883
2561	0.981907
2572	0.981930
2590	0.981954
2592	0.981978
2604	0.982001
2611	0.982049
2612	0.982073
2614	0.982096
2615	0.982120
2628	0.982144
2631	0.982167
2635	0.982191
2636	0.982215
2646	0.982239
2649	0.982262
2665	0.982286
2668	0.982310
2674	0.982333
2681	0.982357
2693	0.982381
2704	0.982405
2707	0.982428
2721	0.982452
2736	0.982476
2742	0.982499
2749	0.982523
2765	0.982547
2794	0.982571
2803	0.982594
2806	0.982618
2822	0.982642
2824	0.982665
2825	0.982689
2826	0.982713
2831	0.982737
2852	0.982760
2854	0.982784
2855	0.982808
2864	0.982831
2869	0.982855
2914	0.982879
2924	0.982903
2927	0.982926
2934	0.982950
2935	0.982974
2943	0.982997
2956	0.983021
2958	0.983045
2986	0.983069
3000	0.983092
3011	0.983116
3032	0.983140
3040	0.983163
3067	0.983187
3086	0.983211
3087	0.983235
3097	0.983258
3098	0.983282
3100	0.983306
3101	0.983329
3120	0.983353
3130	0.983377
3131	0.983401
3141	0.983424
3147	0.983472
3155	0.983495
3164	0.983519
3174	0.983543
3181	0.983567
3186	0.983590
3189	0.983614
3235	0.983638
3237	0.983685
3240	0.983709
3247	0.983733
3254	0.983756
3264	0.983780
3280	0.983827
3299	0.983851
3301	0.983875
3302	0.983899
3305	0.983922
3334	0.983946
3349	0.983970
3352	0.983993
3361	0.984017
3380	0.984041
3417	0.984065
3432	0.984088
3442	0.984112
3444	0.984136
3454	0.984159
3481	0.984183
3490	0.984207
3495	0.984230
3517	0.984254
3532	0.984278
3542	0.984302
3543	0.984325
3545	0.984349
3546	0.984373
3559	0.984396
3564	0.984420
3567	0.984444
3573	0.984468
3590	0.984491
3598	0.984515
3599	0.984539
3603	0.984562
3606	0.984586
3617	0.984610
3622	0.984634
3628	0.984657
3639	0.984681
3645	0.984705
3649	0.984728
3662	0.984752
3671	0.984776
3687	0.984800
3689	0.984823
3697	0.984847
3698	0.984871
3713	0.984894
3730	0.984918
3731	0.984942
3751	0.984966
3765	0.984989
3768	0.985013
3801	0.985037
3805	0.985060
3808	0.985084
3812	0.985108
3822	0.985132
3823	0.985155
3830	0.985179
3838	0.985203
3844	0.985226
3858	0.985250
3859	0.985274
3860	0.985298
3912	0.985321
3923	0.985345
3936	0.985369
3957	0.985392
3968	0.985416
3975	0.985440
3991	0.985464
3995	0.985487
4016	0.985511
4027	0.985535
4054	0.985558
4063	0.985582
4093	0.985606
4098	0.985630
4102	0.985653
4108	0.985677
4117	0.985701
4153	0.985724
4163	0.985748
4172	0.985772
4185	0.985796
4188	0.985819
4190	0.985843
4192	0.985867
4208	0.985890
4210	0.985914
4221	0.985938
4231	0.985962
4246	0.985985
4257	0.986009
4259	0.986033
4269	0.986056
4298	0.986080
4318	0.986104
4322	0.986128
4331	0.986151
4340	0.986175
4350	0.986222
4370	0.986246
4377	0.986270
4388	0.986294
4417	0.986317
4430	0.986341
4443	0.986365
4444	0.986388
4470	0.986412
4489	0.986436
4490	0.986460
4526	0.986483
4529	0.986507
4540	0.986531
4565	0.986554
4579	0.986578
4591	0.986602
4593	0.986626
4622	0.986649
4630	0.986673
4652	0.986697
4658	0.986720
4659	0.986744
4669	0.986768
4672	0.986792
4683	0.986815
4686	0.986839
4715	0.986863
4725	0.986886
4764	0.986910
4772	0.986934
4776	0.986981
4777	0.987005
4796	0.987029
4804	0.987052
4820	0.987076
4847	0.987100
4881	0.987124
4896	0.987147
4926	0.987171
4946	0.987195
4948	0.987218
4965	0.987242
4992	0.987290
4995	0.987337
5022	0.987361
5024	0.987408
5041	0.987432
5062	0.987456
5076	0.987479
5079	0.987503
5098	0.987527
5110	0.987550
5114	0.987574
5121	0.987598
5177	0.987622
5180	0.987645
5181	0.987669
5200	0.987693
5240	0.987716
5243	0.987740
5245	0.987764
5254	0.987788
5264	0.987811
5310	0.987835
5314	0.987859
5331	0.987882
5356	0.987906
5364	0.987930
5377	0.987954
5430	0.987977
5447	0.988001
5475	0.988025
5489	0.988048
5502	0.988072
5593	0.988096
5595	0.988120
5623	0.988143
5654	0.988167
5670	0.988191
5684	0.988214
5687	0.988238
5698	0.988262
5771	0.988286
5811	0.988309
5815	0.988333
5861	0.988357
5897	0.988380
5903	0.988404
5912	0.988428
5922	0.988452
5926	0.988475
5960	0.988499
5973	0.988523
5994	0.988546
6012	0.988570
6022	0.988594
6046	0.988618
6112	0.988641
6138	0.988665
6141	0.988689
6147	0.988712
6183	0.988736
6221	0.988760
6245	0.988783
6256	0.988807
6261	0.988831
6326	0.988855
6359	0.988878
6364	0.988902
6366	0.988926
6369	0.988949
6417	0.988973
6453	0.988997
6465	0.989021
6488	0.989044
6492	0.989068
