key	frequency
0	0.222367
1	0.360752
2	0.463915
3	0.529635
4	0.576126
5	0.611467
6	0.639484
7	0.662517
8	0.681746
9	0.698164
10	0.711748
11	0.723134
12	0.733788
13	0.743876
14	0.752947
15	0.760388
16	0.767664
17	0.773523
18	0.779405
19	0.784744
20	0.789681
21	0.794288
22	0.799225
23	0.803903
24	0.807989
25	0.811533
26	0.815242
27	0.818644
28	0.820935
29	0.823463
30	0.826085
31	0.828707
32	0.831117
33	0.833810
34	0.836125
35	0.838865
36	0.840991
37	0.842857
38	0.844865
39	0.846968
40	0.848716
41	0.850346
42	0.851882
43	0.853582
44	0.855024
45	0.856606
46	0.858095
47	0.859583
48	0.860835
49	0.862276
50	0.863504
51	0.864874
52	0.865701
53	0.866812
54	0.867733
55	0.868890
56	0.870119
57	0.871394
58	0.872576
59	0.873379
60	0.874324
61	0.875505
62	0.876757
63	0.877844
64	0.878694
65	0.879828
66	0.880820
67	0.881600
68	0.882308
69	0.883135
70	0.883962
71	0.885002
72	0.885663
73	0.886466
74	0.887317
75	0.888049
76	0.888829
77	0.889561
78	0.889986
79	0.890742
80	0.891498
81	0.892112
82	0.892585
83	0.893222
84	0.893884
85	0.894380
86	0.895089
87	0.895797
88	0.896435
89	0.897120
90	0.897711
91	0.898325
92	0.898750
93	0.899128
94	0.899766
95	0.900451
96	0.900924
97	0.901443
98	0.901987
99	0.902459
100	0.903026
101	0.903475
102	0.903735
103	0.904255
104	0.904727
105	0.905058
106	0.905601
107	0.905955
108	0.906428
109	0.906806
110	0.907137
111	0.907633
112	0.907987
113	0.908389
114	0.908649
115	0.908956
116	0.909523
117	0.909901
118	0.910279
119	0.910515
120	0.910822
121	0.911271
122	0.911743
123	0.912216
124	0.912664
125	0.913113
126	0.913444
127	0.913680
128	0.913987
129	0.914224
130	0.914531
131	0.914720
132	0.915098
133	0.915287
134	0.915712
135	0.915901
136	0.916184
137	0.916397
138	0.916657
139	0.916917
140	0.917318
141	0.917578
142	0.917956
143	0.918310
144	0.918641
145	0.918925
146	0.919161
147	0.919492
148	0.919870
149	0.920153
150	0.920507
151	0.920744
152	0.921169
153	0.921452
154	0.921759
155	0.921948
156	0.922232
157	0.922539
158	0.922657
159	0.922893
160	0.923130
161	0.923413
162	0.923649
163	0.923838
164	0.924098
165	0.924405
166	0.924476
167	0.924712
168	0.924925
169	0.925185
170	0.925374
171	0.925563
172	0.925799
173	0.926059
174	0.926366
175	0.926768
176	0.927051
177	0.927358
178	0.927618
179	0.927831
180	0.928091
181	0.928327
182	0.928516
183	0.928728
184	0.928823
185	0.929035
186	0.929343
187	0.929626
188	0.929744
189	0.929933
190	0.930099
191	0.930358
192	0.930524
193	0.930665
194	0.930831
195	0.930949
196	0.931162
197	0.931327
198	0.931445
199	0.931729
200	0.931870
201	0.932059
202	0.932295
203	0.932508
204	0.932721
205	0.932792
206	0.933051
207	0.933193
208	0.933335
209	0.933571
210	0.933760
211	0.933925
212	0.934067
213	0.934280
214	0.934422
215	0.934469
216	0.934658
217	0.934752
218	0.934870
219	0.934965
220	0.935154
221	0.935272
222	0.935461
223	0.935697
224	0.935886
225	0.936028
226	0.936193
227	0.936264
228	0.936548
229	0.936595
230	0.936855
231	0.936973
232	0.937091
233	0.937162
234	0.937233
235	0.937422
236	0.937563
237	0.937776
238	0.938060
239	0.938201
240	0.938272
241	0.938390
242	0.938485
243	0.938556
244	0.938579
245	0.938697
246	0.938792
247	0.938934
248	0.939170
249	0.939288
250	0.939406
251	0.939477
252	0.939642
253	0.939784
254	0.939949
255	0.940091
256	0.940186
257	0.940257
258	0.940304
259	0.940446
260	0.940493
261	0.940540
262	0.940753
263	0.940871
264	0.941012
265	0.941107
266	0.941225
267	0.941272
268	0.941296
269	0.941320
270	0.941509
271	0.941650
272	0.941792
273	0.941910
274	0.942028
275	0.942076
276	0.942170
277	0.942288
278	0.942359
279	0.942430
280	0.942477
281	0.942524
282	0.942595
283	0.942713
284	0.942737
285	0.942831
286	0.943020
287	0.943139
288	0.943209
289	0.943280
290	0.943328
291	0.943375
292	0.943517
293	0.943587
294	0.943635
295	0.943776
296	0.943847
297	0.943965
298	0.943989
299	0.944131
300	0.944273
301	0.944414
302	0.944603
303	0.944674
304	0.944698
305	0.944769
306	0.944839
307	0.944981
308	0.945052
309	0.945147
310	0.945265
312	0.945312
313	0.945406
314	0.945477
315	0.945595
316	0.945690
317	0.945761
318	0.945832
319	0.945997
320	0.946021
321	0.946044
322	0.946092
323	0.946186
324	0.946233
325	0.946304
326	0.946399
327	0.946517
328	0.946658
329	0.946777
330	0.946895
331	0.946989
332	0.947036
333	0.947084
334	0.947178
335	0.947273
336	0.947367
337	0.947462
338	0.947485
339	0.947651
340	0.947698
341	0.947745
342	0.947840
343	0.947934
344	0.947958
345	0.948052
346	0.948123
347	0.948170
348	0.948312
349	0.948383
350	0.948430
351	0.948596
352	0.948619
353	0.948761
354	0.948855
355	0.948950
356	0.949115
357	0.949281
358	0.949375
359	0.949470
360	0.949588
361	0.949682
362	0.949730
364	0.949824
365	0.949871
366	0.949942
367	0.949989
368	0.950013
369	0.950107
370	0.950178
371	0.950202
372	0.950344
373	0.950415
374	0.950485
375	0.950533
376	0.950604
377	0.950674
378	0.950793
379	0.950934
380	0.951029
381	0.951100
383	0.951218
384	0.951336
385	0.951407
386	0.951549
387	0.951619
388	0.951643
389	0.951761
390	0.951832
391	0.951950
392	0.952021
393	0.952068
394	0.952115
395	0.952139
396	0.952281
398	0.952304
399	0.952352
400	0.952423
402	0.952446
403	0.952517
404	0.952588
405	0.952682
406	0.952777
407	0.952801
408	0.952824
409	0.952895
410	0.952919
413	0.952966
414	0.952990
415	0.953108
416	0.953155
417	0.953202
418	0.953273
419	0.953368
420	0.953391
422	0.953486
423	0.953580
424	0.953675
425	0.953769
426	0.953840
428	0.953887
429	0.953934
430	0.953982
431	0.954123
432	0.954147
433	0.954171
434	0.954265
435	0.954289
436	0.954336
437	0.954383
438	0.954454
439	0.954478
440	0.954572
441	0.954643
442	0.954738
443	0.954809
445	0.954879
446	0.954903
447	0.954927
448	0.955068
449	0.955116
450	0.955139
451	0.955187
452	0.955234
453	0.955281
454	0.955328
455	0.955352
456	0.955399
457	0.955470
458	0.955588
459	0.955635
460	0.955659
461	0.955683
462	0.955753
463	0.955801
464	0.955824
465	0.955872
466	0.955942
467	0.955966
469	0.955990
470	0.956037
471	0.956061
472	0.956108
473	0.956131
474	0.956226
475	0.956273
476	0.956320
477	0.956344
479	0.956391
481	0.956415
483	0.956462
484	0.956509
485	0.956557
486	0.956580
487	0.956675
489	0.956746
490	0.956793
491	0.956817
492	0.956840
493	0.956911
494	0.956982
496	0.957029
499	0.957076
501	0.957124
502	0.957147
504	0.957171
505	0.957194
506	0.957218
507	0.957289
508	0.957336
509	0.957360
510	0.957407
511	0.957454
512	0.957502
513	0.957549
515	0.957596
516	0.957643
517	0.957738
518	0.957761
519	0.957832
520	0.957880
521	0.957903
522	0.957927
523	0.957950
524	0.958069
526	0.958187
527	0.958234
528	0.958352
529	0.958399
532	0.958423
533	0.958494
534	0.958517
535	0.958565
536	0.958612
537	0.958659
538	0.958683
539	0.958754
540	0.958777
541	0.958825
542	0.958895
543	0.958943
544	0.958966
545	0.959037
546	0.959061
547	0.959084
548	0.959132
550	0.959179
551	0.959202
553	0.959250
554	0.959273
555	0.959321
556	0.959344
557	0.959391
558	0.959415
559	0.959462
560	0.959557
561	0.959604
563	0.959699
564	0.959769
565	0.959793
567	0.959817
569	0.959888
570	0.959911
571	0.960006
572	0.960053
573	0.960077
576	0.960124
577	0.960147
579	0.960266
581	0.960313
582	0.960384
584	0.960407
585	0.960431
586	0.960455
587	0.960502
588	0.960596
589	0.960620
591	0.960644
593	0.960738
594	0.960785
596	0.960809
597	0.960832
598	0.960856
599	0.960880
600	0.960927
601	0.960998
602	0.961021
603	0.961116
604	0.961140
605	0.961187
606	0.961210
609	0.961234
612	0.961329
614	0.961352
615	0.961399
618	0.961494
619	0.961518
620	0.961541
622	0.961588
624	0.961612
626	0.961636
627	0.961659
629	0.961683
631	0.961707
632	0.961730
633	0.961754
635	0.961825
636	0.961872
637	0.961896
640	0.961943
641	0.961990
642	0.962061
643	0.962085
645	0.962108
646	0.962132
649	0.962155
650	0.962203
651	0.962226
652	0.962274
655	0.962321
656	0.962368
657	0.962415
659	0.962439
660	0.962462
661	0.962486
662	0.962510
664	0.962557
665	0.962628
666	0.962651
667	0.962675
668	0.962699
670	0.962722
672	0.962770
674	0.962817
675	0.962840
676	0.962864
677	0.962935
681	0.962959
682	0.962982
683	0.963053
685	0.963077
686	0.963148
687	0.963171
688	0.963195
690	0.963218
691	0.963242
692	0.963266
693	0.963289
694	0.963313
696	0.963360
697	0.963455
700	0.963526
702	0.963549
703	0.963620
704	0.963715
705	0.963785
706	0.963833
707	0.963856
708	0.963880
709	0.963904
710	0.963951
712	0.963974
713	0.964022
715	0.964093
717	0.964163
718	0.964187
719	0.964258
721	0.964305
723	0.964376
728	0.964400
729	0.964423
731	0.964447
732	0.964470
734	0.964494
735	0.964518
737	0.964541
739	0.964565
746	0.964589
747	0.964612
748	0.964636
750	0.964659
751	0.964707
752	0.964730
753	0.964754
754	0.964801
755	0.964848
756	0.964872
758	0.964896
761	0.964919
762	0.964943
766	0.964967
767	0.964990
770	0.965014
772	0.965037
773	0.965108
774	0.965179
775	0.965203
776	0.965250
777	0.965297
778	0.965345
779	0.965368
780	0.965392
781	0.965415
782	0.965439
786	0.965486
787	0.965510
789	0.965534
790	0.965557
792	0.965581
793	0.965604
795	0.965652
796	0.965675
798	0.965723
800	0.965770
801	0.965817
802	0.965841
803	0.965888
804	0.965912
805	0.965935
806	0.965959
807	0.965982
808	0.966006
809	0.966053
811	0.966077
813	0.966100
814	0.966148
815	0.966171
817	0.966219
818	0.966266
820	0.966313
821	0.966337
823	0.966360
827	0.966431
832	0.966526
833	0.966573
838	0.966620
840	0.966644
844	0.966667
845	0.966691
849	0.966738
852	0.966762
853	0.966786
854	0.966809
855	0.966833
858	0.966856
860	0.966880
864	0.966904
865	0.966927
866	0.966975
867	0.967045
869	0.967069
870	0.967093
872	0.967140
873	0.967164
878	0.967187
879	0.967211
880	0.967234
881	0.967282
882	0.967305
884	0.967329
886	0.967353
887	0.967376
888	0.967423
890	0.967447
892	0.967471
893	0.967494
894	0.967518
901	0.967542
910	0.967565
911	0.967589
913	0.967612
914	0.967636
917	0.967683
918	0.967731
919	0.967754
920	0.967778
921	0.967801
924	0.967872
926	0.967896
927	0.967919
928	0.967943
932	0.968038
933	0.968061
934	0.968085
936	0.968108
938	0.968156
939	0.968227
941	0.968250
942	0.968274
943	0.968297
944	0.968321
946	0.968345
952	0.968368
954	0.968416
955	0.968439
956	0.968463
959	0.968486
960	0.968510
961	0.968534
964	0.968557
966	0.968605
970	0.968628
974	0.968675
975	0.968746
976	0.968770
978	0.968794
981	0.968817
982	0.968841
983	0.968912
986	0.968959
987	0.968983
988	0.969006
989	0.969030
990	0.969077
992	0.969101
993	0.969124
994	0.969148
995	0.969172
998	0.969195
999	0.969219
1000	0.969242
1001	0.969290
1003	0.969313
1004	0.969337
1007	0.969361
1008	0.969384
1011	0.969502
1012	0.969526
1013	0.969550
1019	0.969597
1022	0.969644
1023	0.969668
1024	0.969691
1032	0.969715
1034	0.969738
1035	0.969762
1037	0.969786
1040	0.969833
1042	0.969880
1043	0.969904
1045	0.969951
1047	0.969975
1048	0.970046
1050	0.970069
1051	0.970093
1052	0.970116
1053	0.970140
1054	0.970164
1055	0.970187
1059	0.970211
1063	0.970235
1068	0.970282
1069	0.970305
1072	0.970329
1077	0.970353
1080	0.970400
1081	0.970424
1084	0.970447
1089	0.970494
1092	0.970518
1097	0.970542
1098	0.970565
1099	0.970613
1100	0.970636
1103	0.970660
1105	0.970683
1106	0.970731
1109	0.970754
1111	0.970778
1113	0.970802
1116	0.970825
1117	0.970849
1123	0.970872
1124	0.970896
1129	0.970920
1130	0.970967
1131	0.970991
1132	0.971014
1143	0.971038
1147	0.971061
1148	0.971109
1151	0.971132
1152	0.971156
1155	0.971180
1159	0.971203
1160	0.971227
1161	0.971250
1165	0.971274
1167	0.971298
1168	0.971321
1169	0.971345
1171	0.971369
1179	0.971416
1181	0.971439
1185	0.971487
1188	0.971510
1189	0.971534
1190	0.971557
1201	0.971581
1202	0.971605
1205	0.971628
1208	0.971652
1209	0.971676
1212	0.971699
1213	0.971723
1218	0.971746
1219	0.971770
1220	0.971794
1222	0.971817
1224	0.971841
1228	0.971888
1229	0.971912
1230	0.971935
1232	0.971959
1234	0.972006
1236	0.972030
1242	0.972054
1248	0.972077
1251	0.972101
1254	0.972124
1255	0.972172
1259	0.972195
1265	0.972243
1268	0.972290
1273	0.972313
1274	0.972337
1279	0.972361
1281	0.972384
1283	0.972408
1284	0.972455
1285	0.972479
1291	0.972502
1294	0.972526
1295	0.972550
1300	0.972597
1301	0.972621
1305	0.972644
1308	0.972668
1310	0.972691
1313	0.972739
1316	0.972762
1318	0.972786
1321	0.972810
1322	0.972833
1327	0.972880
1328	0.972904
1330	0.972928
1332	0.972951
1336	0.972975
1338	0.973046
1339	0.973069
1340	0.973093
1342	0.973117
1353	0.973140
1355	0.973164
1356	0.973187
1358	0.973235
1360	0.973258
1364	0.973282
1365	0.973329
1367	0.973353
1372	0.973376
1383	0.973400
1385	0.973424
1386	0.973447
1387	0.973471
1403	0.973495
1404	0.973518
1406	0.973542
1407	0.973565
1412	0.973589
1417	0.973636
1418	0.973684
1430	0.973707
1433	0.973731
1434	0.973754
1437	0.973778
1440	0.973802
1443	0.973825
1444	0.973849
1446	0.973873
1452	0.973896
1455	0.973920
1457	0.973943
1458	0.973967
1460	0.974014
1462	0.974062
1465	0.974109
1468	0.974132
1469	0.974156
1471	0.974180
1475	0.974203
1478	0.974274
1479	0.974298
1480	0.974321
1483	0.974345
1490	0.974392
1495	0.974440
1497	0.974463
1499	0.974487
1501	0.974534
1503	0.974558
1506	0.974605
1513	0.974629
1515	0.974652
1518	0.974676
1519	0.974699
1525	0.974723
1526	0.974747
1529	0.974770
1535	0.974818
1536	0.974865
1539	0.974888
1542	0.974912
1546	0.974959
1547	0.974983
1548	0.975006
1549	0.975030
1551	0.975054
1557	0.975077
1563	0.975101
1567	0.975125
1568	0.975148
1571	0.975172
1574	0.975195
1577	0.975219
1578	0.975243
1580	0.975266
1582	0.975290
1588	0.975314
1591	0.975337
1597	0.975361
1598	0.975384
1600	0.975408
1601	0.975432
1603	0.975455
1605	0.975479
1607	0.975503
1615	0.975526
1618	0.975550
1620	0.975573
1623	0.975597
1626	0.975621
1629	0.975644
1632	0.975668
1635	0.975692
1639	0.975715
1640	0.975739
1641	0.975762
1642	0.975810
1643	0.975833
1647	0.975857
1653	0.975881
1656	0.975904
1657	0.975928
1659	0.975951
1660	0.975975
1667	0.975999
1670	0.976022
1675	0.976046
1676	0.976070
1678	0.976093
1681	0.976117
1685	0.976140
1691	0.976164
1693	0.976188
1694	0.976211
1702	0.976259
1711	0.976282
1716	0.976306
1718	0.976329
1723	0.976353
1724	0.976377
1725	0.976400
1727	0.976424
1732	0.976448
1734	0.976471
1739	0.976495
1741	0.976518
1752	0.976542
1755	0.976566
1757	0.976589
1762	0.976613
1765	0.976637
1769	0.976660
1772	0.976684
1773	0.976731
1784	0.976755
1786	0.976778
1787	0.976802
1796	0.976825
1797	0.976849
1798	0.976873
1799	0.976896
1802	0.976920
1805	0.976944
1812	0.976967
1819	0.976991
1837	0.977062
1840	0.977085
1859	0.977133
1865	0.977156
1869	0.977180
1875	0.977203
1876	0.977227
1878	0.977251
1881	0.977274
1889	0.977298
1895	0.977322
1902	0.977345
1906	0.977392
1910	0.977416
1911	0.977440
1915	0.977463
1917	0.977487
1935	0.977511
1937	0.977534
1944	0.977558
1945	0.977581
1950	0.977629
1955	0.977652
1965	0.977676
1970	0.977747
1972	0.977770
1973	0.977794
1976	0.977818
1982	0.977889
1983	0.977912
1984	0.977936
2002	0.977959
2009	0.977983
2016	0.978007
2024	0.978030
2026	0.978054
2028	0.978078
2029	0.978101
2031	0.978125
2035	0.978148
2036	0.978172
2037	0.978196
2042	0.978243
2044	0.978267
2045	0.978290
2053	0.978337
2054	0.978361
2055	0.978408
2056	0.978432
2065	0.978456
2068	0.978479
2069	0.978503
2075	0.978526
2077	0.978550
2096	0.978574
2097	0.978597
2102	0.978644
2106	0.978668
2107	0.978692
2110	0.978715
2111	0.978739
2116	0.978763
2119	0.978810
2121	0.978833
2128	0.978857
2138	0.978881
2139	0.978904
2142	0.978928
2144	0.978952
2151	0.978999
2152	0.979022
2153	0.979046
2155	0.979070
2158	0.979093
2161	0.979117
2166	0.979141
2170	0.979164
2189	0.979188
2197	0.979211
2198	0.979235
2199	0.979259
2207	0.979282
2216	0.979330
2217	0.979353
2218	0.979377
2219	0.979400
2228	0.979424
2229	0.979448
2235	0.979471
2244	0.979495
2246	0.979519
2248	0.979542
2252	0.979566
2260	0.979589
2262	0.979637
2279	0.979660
2281	0.979684
2290	0.979708
2298	0.979731
2301	0.979755
2309	0.979802
2310	0.979826
2333	0.979849
2340	0.979873
2346	0.979897
2351	0.979920
2359	0.979944
2360	0.979991
2362	0.980015
2366	0.980038
2372	0.980062
2386	0.980086
2399	0.980109
2401	0.980133
2406	0.980156
2419	0.980180
2420	0.980204
2421	0.980227
2422	0.980251
2425	0.980322
2432	0.980345
2437	0.980369
2440	0.980393
2442	0.980416
2456	0.980440
2459	0.980463
2465	0.980487
2488	0.980511
2495	0.980534
2505	0.980558
2513	0.980582
2556	0.980605
2569	0.980629
2581	0.980652
2584	0.980676
2588	0.980700
2607	0.980723
2630	0.980747
2631	0.980771
2637	0.980794
2638	0.980818
2642	0.980841
2653	0.980865
2661	0.980889
2663	0.980912
2670	0.980936
2685	0.980960
2688	0.980983
2707	0.981007
2725	0.981030
2728	0.981054
2739	0.981078
2740	0.981125
2747	0.981149
2750	0.981172
2759	0.981196
2761	0.981219
2803	0.981243
2808	0.981267
2816	0.981290
2823	0.981314
2831	0.981338
2836	0.981361
2846	0.981385
2854	0.981432
2855	0.981456
2875	0.981479
2892	0.981503
2904	0.981550
2906	0.981574
2910	0.981597
2917	0.981621
2924	0.981645
2945	0.981668
2946	0.981692
2953	0.981716
2958	0.981739
2961	0.981786
2970	0.981810
2977	0.981834
2981	0.981857
2992	0.981881
2994	0.981905
2998	0.981928
3001	0.981952
3002	0.981975
3005	0.981999
3014	0.982023
3034	0.982070
3047	0.982094
3052	0.982117
3068	0.982141
3082	0.982164
3083	0.982188
3087	0.982212
3101	0.982235
3127	0.982259
3133	0.982282
3149	0.982306
3159	0.982330
3160	0.982353
3170	0.982377
3187	0.982401
3221	0.982424
3244	0.982448
3254	0.982471
3255	0.982495
3275	0.982519
3284	0.982542
3294	0.982566
3295	0.982590
3308	0.982613
3313	0.982637
3317	0.982660
3320	0.982684
3333	0.982708
3337	0.982731
3351	0.982755
3358	0.982779
3362	0.982802
3367	0.982826
3380	0.982849
3402	0.982873
3405	0.982897
3439	0.982944
3443	0.982968
3448	0.982991
3467	0.983015
3494	0.983038
3527	0.983062
3535	0.983086
3539	0.983109
3541	0.983133
3542	0.983157
3546	0.983180
3549	0.983204
3556	0.983227
3564	0.983251
3585	0.983275
3594	0.983298
3601	0.983322
3616	0.983346
3617	0.983369
3624	0.983393
3635	0.983416
3637	0.983440
3640	0.983464
3647	0.983487
3648	0.983511
3652	0.983535
3654	0.983558
3655	0.983582
3666	0.983605
3669	0.983629
3675	0.983653
3682	0.983676
3688	0.983700
3690	0.983747
3701	0.983771
3708	0.983818
3714	0.983842
3733	0.983865
3735	0.983889
3739	0.983912
3749	0.983936
3780	0.983960
3789	0.983983
3832	0.984007
3851	0.984054
3856	0.984078
3867	0.984101
3871	0.984125
3896	0.984149
3904	0.984172
3906	0.984196
3907	0.984220
3911	0.984243
3918	0.984267
3922	0.984290
3940	0.984314
3975	0.984338
3987	0.984361
4001	0.984385
4006	0.984409
4014	0.984432
4039	0.984456
4041	0.984479
4045	0.984503
4050	0.984550
4060	0.984574
4078	0.984598
4082	0.984621
4089	0.984645
4111	0.984692
4113	0.984716
4128	0.984739
4132	0.984763
4142	0.984787
4152	0.984810
4165	0.984834
4174	0.984881
4182	0.984905
4191	0.984928
4211	0.984952
4227	0.984976
4237	0.984999
4247	0.985023
4248	0.985046
4249	0.985070
4254	0.985094
4264	0.985117
4282	0.985141
4303	0.985165
4306	0.985188
4368	0.985212
4394	0.985235
4420	0.985259
4428	0.985306
4453	0.985330
4495	0.985354
4497	0.985377
4523	0.985401
4560	0.985424
4599	0.985448
4600	0.985472
4602	0.985495
4604	0.985519
4622	0.985543
4635	0.985566
4693	0.985590
4736	0.985613
4763	0.985637
4801	0.985661
4803	0.985684
4815	0.985708
4824	0.985731
4837	0.985755
4871	0.985779
4873	0.985802
4922	0.985826
4924	0.985850
4951	0.985873
4969	0.985897
4972	0.985920
4982	0.985944
4990	0.985968
4997	0.985991
5004	0.986015
5007	0.986039
5035	0.986062
5044	0.986086
5062	0.986109
5081	0.986133
5084	0.986157
5096	0.986180
5097	0.986204
5099	0.986228
5104	0.986251
5111	0.986275
5138	0.986298
5185	0.986322
5208	0.986346
5221	0.986369
5241	0.986393
5245	0.986417
5246	0.986440
5254	0.986464
5269	0.986487
5270	0.986511
5366	0.986535
5411	0.986558
5436	0.986582
5465	0.986606
5477	0.986629
5491	0.986653
5509	0.986676
5521	0.986700
5564	0.986724
5586	0.986747
5647	0.986771
5654	0.986795
5658	0.986818
5663	0.986865
5676	0.986889
5713	0.986913
5726	0.986936
5734	0.986960
5796	0.986984
5825	0.987007
5855	0.987031
5886	0.987054
5892	0.987078
5936	0.987102
5974	0.987125
6055	0.987149
6078	0.987173
6082	0.987196
6088	0.987220
6125	0.987243
6156	0.987267
6163	0.987291
6167	0.987314
6182	0.987338
6199	0.987362
6207	0.987385
6218	0.987409
6230	0.987432
6237	0.987456
6271	0.987480
6276	0.987503
6288	0.987527
6290	0.987550
6319	0.987574
6352	0.987598
6368	0.987621
